{
  "aor": 0.00720515873015873,
  "aqi": 0.013718036428571426,
  "bids_meta": {
    "AcquisitionMatrixPE": 64,
    "AcquisitionNumber": 1,
    "AcquisitionTime": "11:54:32.555000",
    "BandwidthPerPixelPhaseEncode": 24.038,
    "BaseResolution": 64,
    "BodyPartExamined": "HEAD",
    "ConsistencyInfo": "N4_VD13A_LATEST_20120616",
    "ConversionSoftware": "dcm2niix",
    "ConversionSoftwareVersion": "v1.0.20181125  GCC6.3.0",
    "DerivedVendorReportedEchoSpacing": 0.000650012,
    "DeviceSerialNumber": "45250",
    "DwellTime": 4.6e-06,
    "EchoTime": 0.033,
    "EchoTrainLength": 64,
    "EffectiveEchoSpacing": 0.000650012,
    "FlipAngle": 90,
    "ImageOrientationPatientDICOM": [
      0.999668,
      -0.0247804,
      -0.00705532,
      0.0226856,
      0.976361,
      -0.214952
    ],
    "ImageType": [
      "ORIGINAL",
      "PRIMARY",
      "M",
      "ND",
      "NORM",
      "MOSAIC"
    ],
    "ImagingFrequency": 123.214,
    "InPlanePhaseEncodingDirectionDICOM": "COL",
    "InstitutionAddress": "Kopernikusstr._26_Graz_Graz_AT_8010",
    "InstitutionName": "KFU",
    "InstitutionalDepartmentName": "Department",
    "MRAcquisitionType": "2D",
    "MagneticFieldStrength": 3,
    "Manufacturer": "Siemens",
    "ManufacturersModelName": "Skyra",
    "Modality": "MR",
    "PartialFourier": 1,
    "PatientPosition": "HFS",
    "PercentPhaseFOV": 100,
    "PhaseEncodingDirection": "j-",
    "PhaseEncodingSteps": 64,
    "PhaseResolution": 1,
    "PixelBandwidth": 1700,
    "ProcedureStepDescription": "KFU_Entw-Psy",
    "ProtocolName": "fMRI_1",
    "PulseSequenceDetails": "%SiemensSeq%_ep2d_pace",
    "ReceiveCoilActiveElements": "HE1-4",
    "ReceiveCoilName": "HeadNeck_20",
    "ReconMatrixPE": 64,
    "RepetitionTime": 2.34,
    "SAR": 0.189338,
    "ScanOptions": "FS",
    "ScanningSequence": "EP",
    "SequenceName": "_epfid2d1_64",
    "SequenceVariant": "SK",
    "SeriesDescription": "fMRI_1",
    "SeriesNumber": 2,
    "ShimSetting": [
      -1606,
      -3700,
      -4270,
      512,
      284,
      333,
      428,
      -214
    ],
    "SliceThickness": 3,
    "SliceTiming": [
      2.2525,
      2.185,
      2.115,
      2.0475,
      1.98,
      1.91,
      1.8425,
      1.775,
      1.7075,
      1.6375,
      1.57,
      1.5025,
      1.4325,
      1.365,
      1.2975,
      1.2275,
      1.16,
      1.0925,
      1.025,
      0.955,
      0.8875,
      0.82,
      0.75,
      0.6825,
      0.615,
      0.5475,
      0.4775,
      0.41,
      0.3425,
      0.2725,
      0.205,
      0.1375,
      0.07,
      0
    ],
    "SoftwareVersions": "syngo_MR_D13",
    "SpacingBetweenSlices": 3.3,
    "StationName": "FBMTMR1",
    "TaskName": "read",
    "TotalReadoutTime": 0.0409508,
    "TxRefAmp": 390.623,
    "dataset": "ds003126",
    "dcmmeta_affine": [
      [
        -2.9990041255950928,
        0.06805692613124847,
        -0.04030996561050415,
        93.97261810302734
      ],
      [
        0.07434134185314178,
        2.9290833473205566,
        -0.7085778713226318,
        -110.06099700927734
      ],
      [
        -0.021165946498513222,
        0.6448559761047363,
        3.2227771282196045,
        -22.703311920166016
      ],
      [
        0.0,
        0.0,
        0.0,
        1.0
      ]
    ],
    "dcmmeta_reorient_transform": [
      [
        0.0,
        -1.0,
        0.0,
        63.0
      ],
      [
        1.0,
        0.0,
        0.0,
        0.0
      ],
      [
        0.0,
        0.0,
        1.0,
        0.0
      ],
      [
        0.0,
        0.0,
        0.0,
        1.0
      ]
    ],
    "dcmmeta_shape": [
      64,
      64,
      34,
      126
    ],
    "dcmmeta_slice_dim": 2,
    "dcmmeta_version": 0.6,
    "global": {
      "const": {
        "AcquisitionMatrix": [
          64,
          0,
          0,
          64
        ],
        "AngioFlag": "N",
        "BitsAllocated": 16,
        "BitsStored": 12,
        "BodyPartExamined": "HEAD",
        "Columns": 384,
        "EchoNumbers": 1,
        "EchoTime": 33.0,
        "EchoTrainLength": 64,
        "FlipAngle": 90.0,
        "HighBit": 11,
        "ImageOrientationPatient": [
          0.9996680208484,
          -0.0247804483285,
          -0.0070553152785,
          0.02268564299178,
          0.97636110352811,
          -0.2149519879401
        ],
        "ImagePositionPatient": [
          -588.9899650403,
          -531.22996232357,
          124.4861202415
        ],
        "ImageType": [
          "ORIGINAL",
          "PRIMARY",
          "M",
          "ND",
          "NORM",
          "MOSAIC"
        ],
        "ImagedNucleus": "1H",
        "ImagingFrequency": 123.214237,
        "InPlanePhaseEncodingDirection": "COL",
        "MRAcquisitionType": "2D",
        "MagneticFieldStrength": 3.0,
        "Manufacturer": "SIEMENS",
        "ManufacturerModelName": "Skyra",
        "Modality": "MR",
        "NumberOfAverages": 1.0,
        "NumberOfPhaseEncodingSteps": 64,
        "PercentPhaseFieldOfView": 100.0,
        "PercentSampling": 100.0,
        "PerformedProcedureStepStartTime": "113607.240000",
        "PhotometricInterpretation": "MONOCHROME2",
        "PixelBandwidth": 1700.0,
        "PixelRepresentation": 0,
        "PixelSpacing": [
          3.0,
          3.0
        ],
        "ProtocolName": "fMRI_1",
        "RepetitionTime": 2340.0,
        "Rows": 384,
        "SAR": 0.18933758330215,
        "SamplesPerPixel": 1,
        "ScanOptions": "FS",
        "ScanningSequence": "EP",
        "SequenceName": "*epfid2d1_64",
        "SequenceVariant": "SK",
        "SeriesDescription": "fMRI_1",
        "SeriesNumber": 2,
        "SeriesTime": "115532.287000",
        "SliceLocation": 0.31243850495563,
        "SliceThickness": 3.0,
        "SmallestImagePixelValue": 0,
        "SoftwareVersions": "syngo MR D13",
        "SpacingBetweenSlices": 3.2999998892825,
        "SpecificCharacterSet": "ISO_IR 100",
        "StudyID": "1",
        "StudyTime": "113607.190000",
        "TransmitCoilName": "Body",
        "VariableFlipAngleFlag": "N",
        "WindowCenterWidthExplanation": "Algo1",
        "dBdt": 0.0
      },
      "slices": {}
    },
    "modality": "bold",
    "run_id": 1,
    "session_id": "2",
    "subject_id": "047EPKL013035",
    "task_id": "read",
    "time": {
      "samples": {
        "AcquisitionNumber": [
          1,
          2,
          3,
          4,
          5,
          6,
          7,
          8,
          9,
          10,
          11,
          12,
          13,
          14,
          15,
          16,
          17,
          18,
          19,
          20,
          21,
          22,
          23,
          24,
          25,
          26,
          27,
          28,
          29,
          30,
          31,
          32,
          33,
          34,
          35,
          36,
          37,
          38,
          39,
          40,
          41,
          42,
          43,
          44,
          45,
          46,
          47,
          48,
          49,
          50,
          51,
          52,
          53,
          54,
          55,
          56,
          57,
          58,
          59,
          60,
          61,
          62,
          63,
          64,
          65,
          66,
          67,
          68,
          69,
          70,
          71,
          72,
          73,
          74,
          75,
          76,
          77,
          78,
          79,
          80,
          81,
          82,
          83,
          84,
          85,
          86,
          87,
          88,
          89,
          90,
          91,
          92,
          93,
          94,
          95,
          96,
          97,
          98,
          99,
          100,
          101,
          102,
          103,
          104,
          105,
          106,
          107,
          108,
          109,
          110,
          111,
          112,
          113,
          114,
          115,
          116,
          117,
          118,
          119,
          120,
          121,
          122,
          123,
          124,
          125,
          126
        ],
        "AcquisitionTime": [
          "115432.555000",
          "115434.895000",
          "115437.235000",
          "115439.575000",
          "115441.915000",
          "115444.255000",
          "115446.595000",
          "115448.935000",
          "115451.275000",
          "115453.615000",
          "115455.955000",
          "115458.295000",
          "115500.635000",
          "115502.975000",
          "115505.315000",
          "115507.655000",
          "115509.995000",
          "115512.335000",
          "115514.675000",
          "115517.015000",
          "115519.355000",
          "115521.695000",
          "115524.035000",
          "115526.375000",
          "115528.715000",
          "115531.055000",
          "115533.395000",
          "115535.735000",
          "115538.075000",
          "115540.415000",
          "115542.755000",
          "115545.095000",
          "115547.435000",
          "115549.775000",
          "115552.115000",
          "115554.455000",
          "115556.795000",
          "115559.135000",
          "115601.475000",
          "115603.815000",
          "115606.155000",
          "115608.495000",
          "115610.835000",
          "115613.175000",
          "115615.515000",
          "115617.855000",
          "115620.195000",
          "115622.535000",
          "115624.875000",
          "115627.215000",
          "115629.555000",
          "115631.895000",
          "115634.235000",
          "115636.575000",
          "115638.915000",
          "115641.255000",
          "115643.595000",
          "115645.935000",
          "115648.275000",
          "115650.615000",
          "115652.955000",
          "115655.295000",
          "115657.635000",
          "115659.975000",
          "115702.315000",
          "115704.655000",
          "115706.995000",
          "115709.335000",
          "115711.675000",
          "115714.015000",
          "115716.355000",
          "115718.695000",
          "115721.035000",
          "115723.375000",
          "115725.715000",
          "115728.055000",
          "115730.395000",
          "115732.735000",
          "115735.075000",
          "115737.415000",
          "115739.755000",
          "115742.095000",
          "115744.435000",
          "115746.775000",
          "115749.115000",
          "115751.455000",
          "115753.795000",
          "115756.135000",
          "115758.475000",
          "115800.815000",
          "115803.155000",
          "115805.495000",
          "115807.835000",
          "115810.175000",
          "115812.515000",
          "115814.855000",
          "115817.195000",
          "115819.535000",
          "115821.875000",
          "115824.215000",
          "115826.555000",
          "115828.895000",
          "115831.235000",
          "115833.575000",
          "115835.915000",
          "115838.255000",
          "115840.595000",
          "115842.935000",
          "115845.275000",
          "115847.615000",
          "115849.955000",
          "115852.295000",
          "115854.635000",
          "115856.975000",
          "115859.315000",
          "115901.655000",
          "115903.995000",
          "115906.335000",
          "115908.675000",
          "115911.015000",
          "115913.355000",
          "115915.695000",
          "115918.035000",
          "115920.375000",
          "115922.715000",
          "115925.055000"
        ],
        "ContentTime": [
          "115532.292000",
          "115532.295000",
          "115532.298000",
          "115532.301000",
          "115532.304000",
          "115532.306000",
          "115532.309000",
          "115532.312000",
          "115532.315000",
          "115532.318000",
          "115532.321000",
          "115532.323000",
          "115532.326000",
          "115532.329000",
          "115532.332000",
          "115532.335000",
          "115532.338000",
          "115532.341000",
          "115532.344000",
          "115532.356000",
          "115532.359000",
          "115532.362000",
          "115532.364000",
          "115532.367000",
          "115532.370000",
          "115532.372000",
          "115632.285000",
          "115632.289000",
          "115632.291000",
          "115632.294000",
          "115632.297000",
          "115632.299000",
          "115632.302000",
          "115632.305000",
          "115632.307000",
          "115632.310000",
          "115632.312000",
          "115632.315000",
          "115632.318000",
          "115632.320000",
          "115632.323000",
          "115632.325000",
          "115632.328000",
          "115632.331000",
          "115632.333000",
          "115632.336000",
          "115632.338000",
          "115632.341000",
          "115632.344000",
          "115632.346000",
          "115632.358000",
          "115732.285000",
          "115732.288000",
          "115732.291000",
          "115732.293000",
          "115732.296000",
          "115732.299000",
          "115732.301000",
          "115732.304000",
          "115732.307000",
          "115732.309000",
          "115732.312000",
          "115732.314000",
          "115732.317000",
          "115732.320000",
          "115732.322000",
          "115732.325000",
          "115732.328000",
          "115732.330000",
          "115732.333000",
          "115732.336000",
          "115732.338000",
          "115732.341000",
          "115732.344000",
          "115732.346000",
          "115732.349000",
          "115732.351000",
          "115752.285000",
          "115752.288000",
          "115752.291000",
          "115752.294000",
          "115752.296000",
          "115752.299000",
          "115752.302000",
          "115752.304000",
          "115752.307000",
          "115852.285000",
          "115852.289000",
          "115852.292000",
          "115852.294000",
          "115852.297000",
          "115852.300000",
          "115852.303000",
          "115852.306000",
          "115852.309000",
          "115852.312000",
          "115852.315000",
          "115852.317000",
          "115852.320000",
          "115852.323000",
          "115852.326000",
          "115852.329000",
          "115852.332000",
          "115852.334000",
          "115852.337000",
          "115852.341000",
          "115852.343000",
          "115852.346000",
          "115852.349000",
          "115852.352000",
          "115852.355000",
          "115926.897000",
          "115926.900000",
          "115926.903000",
          "115926.906000",
          "115926.909000",
          "115926.912000",
          "115926.915000",
          "115926.919000",
          "115926.923000",
          "115926.926000",
          "115926.929000",
          "115926.932000",
          "115926.935000",
          "115926.938000",
          "115926.941000"
        ],
        "InstanceCreationTime": [
          "115532.292000",
          "115532.295000",
          "115532.298000",
          "115532.301000",
          "115532.304000",
          "115532.306000",
          "115532.309000",
          "115532.312000",
          "115532.315000",
          "115532.318000",
          "115532.321000",
          "115532.323000",
          "115532.326000",
          "115532.329000",
          "115532.332000",
          "115532.335000",
          "115532.338000",
          "115532.341000",
          "115532.344000",
          "115532.356000",
          "115532.359000",
          "115532.362000",
          "115532.364000",
          "115532.367000",
          "115532.370000",
          "115532.372000",
          "115632.285000",
          "115632.289000",
          "115632.291000",
          "115632.294000",
          "115632.297000",
          "115632.299000",
          "115632.302000",
          "115632.305000",
          "115632.307000",
          "115632.310000",
          "115632.312000",
          "115632.315000",
          "115632.318000",
          "115632.320000",
          "115632.323000",
          "115632.325000",
          "115632.328000",
          "115632.331000",
          "115632.333000",
          "115632.336000",
          "115632.338000",
          "115632.341000",
          "115632.344000",
          "115632.346000",
          "115632.358000",
          "115732.285000",
          "115732.288000",
          "115732.291000",
          "115732.293000",
          "115732.296000",
          "115732.299000",
          "115732.301000",
          "115732.304000",
          "115732.307000",
          "115732.309000",
          "115732.312000",
          "115732.314000",
          "115732.317000",
          "115732.320000",
          "115732.322000",
          "115732.325000",
          "115732.328000",
          "115732.330000",
          "115732.333000",
          "115732.336000",
          "115732.338000",
          "115732.341000",
          "115732.344000",
          "115732.346000",
          "115732.349000",
          "115732.351000",
          "115752.285000",
          "115752.288000",
          "115752.291000",
          "115752.294000",
          "115752.296000",
          "115752.299000",
          "115752.302000",
          "115752.304000",
          "115752.307000",
          "115852.285000",
          "115852.289000",
          "115852.292000",
          "115852.294000",
          "115852.297000",
          "115852.300000",
          "115852.303000",
          "115852.306000",
          "115852.309000",
          "115852.312000",
          "115852.315000",
          "115852.317000",
          "115852.320000",
          "115852.323000",
          "115852.326000",
          "115852.329000",
          "115852.332000",
          "115852.334000",
          "115852.337000",
          "115852.341000",
          "115852.343000",
          "115852.346000",
          "115852.349000",
          "115852.352000",
          "115852.355000",
          "115926.897000",
          "115926.900000",
          "115926.903000",
          "115926.906000",
          "115926.909000",
          "115926.912000",
          "115926.915000",
          "115926.919000",
          "115926.923000",
          "115926.926000",
          "115926.929000",
          "115926.932000",
          "115926.935000",
          "115926.938000",
          "115926.941000"
        ],
        "InstanceNumber": [
          1,
          2,
          3,
          4,
          5,
          6,
          7,
          8,
          9,
          10,
          11,
          12,
          13,
          14,
          15,
          16,
          17,
          18,
          19,
          20,
          21,
          22,
          23,
          24,
          25,
          26,
          27,
          28,
          29,
          30,
          31,
          32,
          33,
          34,
          35,
          36,
          37,
          38,
          39,
          40,
          41,
          42,
          43,
          44,
          45,
          46,
          47,
          48,
          49,
          50,
          51,
          52,
          53,
          54,
          55,
          56,
          57,
          58,
          59,
          60,
          61,
          62,
          63,
          64,
          65,
          66,
          67,
          68,
          69,
          70,
          71,
          72,
          73,
          74,
          75,
          76,
          77,
          78,
          79,
          80,
          81,
          82,
          83,
          84,
          85,
          86,
          87,
          88,
          89,
          90,
          91,
          92,
          93,
          94,
          95,
          96,
          97,
          98,
          99,
          100,
          101,
          102,
          103,
          104,
          105,
          106,
          107,
          108,
          109,
          110,
          111,
          112,
          113,
          114,
          115,
          116,
          117,
          118,
          119,
          120,
          121,
          122,
          123,
          124,
          125,
          126
        ],
        "LargestImagePixelValue": [
          2274,
          1813,
          2266,
          2298,
          2038,
          2338,
          1932,
          2192,
          1918,
          1820,
          1791,
          1801,
          1796,
          1755,
          2099,
          1776,
          1758,
          1753,
          2075,
          2007,
          1744,
          1770,
          1762,
          2082,
          1846,
          1735,
          1816,
          2042,
          1767,
          1752,
          1877,
          1813,
          1853,
          1746,
          1753,
          1930,
          1936,
          1724,
          2221,
          1763,
          1719,
          1781,
          1964,
          2261,
          1721,
          1996,
          1756,
          1713,
          1839,
          1942,
          1709,
          2056,
          1747,
          2133,
          1774,
          1740,
          1859,
          1767,
          2201,
          2100,
          1717,
          1791,
          1787,
          2017,
          2222,
          1744,
          1935,
          1717,
          1728,
          1731,
          1668,
          1740,
          1723,
          1813,
          1772,
          1714,
          1740,
          1724,
          1685,
          1826,
          1846,
          1732,
          1750,
          2179,
          1737,
          1723,
          1898,
          1696,
          1705,
          1913,
          1800,
          2334,
          1695,
          1710,
          1753,
          1726,
          1738,
          1781,
          2010,
          1692,
          1715,
          1893,
          1779,
          1942,
          1829,
          1740,
          1741,
          1886,
          1756,
          1771,
          1742,
          1754,
          1736,
          1762,
          1747,
          1750,
          1893,
          1717,
          1770,
          2036,
          1804,
          1746,
          1739,
          1876,
          1842,
          1715
        ],
        "WindowCenter": [
          817.0,
          817.0,
          816.0,
          816.0,
          815.0,
          814.0,
          813.0,
          815.0,
          813.0,
          813.0,
          817.0,
          815.0,
          814.0,
          815.0,
          814.0,
          813.0,
          816.0,
          815.0,
          814.0,
          814.0,
          814.0,
          814.0,
          817.0,
          813.0,
          812.0,
          813.0,
          815.0,
          814.0,
          813.0,
          813.0,
          813.0,
          812.0,
          811.0,
          813.0,
          815.0,
          814.0,
          813.0,
          812.0,
          812.0,
          812.0,
          813.0,
          814.0,
          813.0,
          813.0,
          812.0,
          811.0,
          810.0,
          812.0,
          811.0,
          812.0,
          810.0,
          812.0,
          811.0,
          814.0,
          810.0,
          812.0,
          813.0,
          813.0,
          812.0,
          814.0,
          812.0,
          818.0,
          813.0,
          814.0,
          811.0,
          810.0,
          810.0,
          811.0,
          810.0,
          812.0,
          811.0,
          813.0,
          812.0,
          812.0,
          812.0,
          811.0,
          810.0,
          811.0,
          813.0,
          813.0,
          812.0,
          812.0,
          811.0,
          812.0,
          810.0,
          813.0,
          813.0,
          811.0,
          810.0,
          815.0,
          811.0,
          811.0,
          808.0,
          811.0,
          809.0,
          809.0,
          813.0,
          812.0,
          811.0,
          811.0,
          812.0,
          811.0,
          812.0,
          812.0,
          810.0,
          810.0,
          810.0,
          810.0,
          809.0,
          810.0,
          810.0,
          812.0,
          809.0,
          810.0,
          810.0,
          809.0,
          811.0,
          812.0,
          811.0,
          810.0,
          811.0,
          811.0,
          810.0,
          808.0,
          806.0,
          807.0
        ],
        "WindowWidth": [
          1756.0,
          1753.0,
          1754.0,
          1752.0,
          1748.0,
          1747.0,
          1742.0,
          1749.0,
          1742.0,
          1746.0,
          1753.0,
          1750.0,
          1747.0,
          1749.0,
          1749.0,
          1743.0,
          1751.0,
          1749.0,
          1749.0,
          1747.0,
          1745.0,
          1748.0,
          1753.0,
          1743.0,
          1742.0,
          1746.0,
          1748.0,
          1747.0,
          1743.0,
          1743.0,
          1742.0,
          1739.0,
          1740.0,
          1743.0,
          1748.0,
          1747.0,
          1743.0,
          1740.0,
          1743.0,
          1740.0,
          1744.0,
          1746.0,
          1745.0,
          1745.0,
          1741.0,
          1738.0,
          1735.0,
          1740.0,
          1738.0,
          1741.0,
          1735.0,
          1743.0,
          1735.0,
          1748.0,
          1737.0,
          1741.0,
          1742.0,
          1742.0,
          1745.0,
          1744.0,
          1736.0,
          1761.0,
          1745.0,
          1747.0,
          1742.0,
          1735.0,
          1736.0,
          1736.0,
          1735.0,
          1741.0,
          1738.0,
          1744.0,
          1742.0,
          1741.0,
          1743.0,
          1738.0,
          1736.0,
          1739.0,
          1743.0,
          1745.0,
          1741.0,
          1739.0,
          1737.0,
          1742.0,
          1735.0,
          1744.0,
          1743.0,
          1737.0,
          1733.0,
          1750.0,
          1739.0,
          1739.0,
          1732.0,
          1738.0,
          1734.0,
          1735.0,
          1742.0,
          1740.0,
          1740.0,
          1738.0,
          1741.0,
          1742.0,
          1740.0,
          1742.0,
          1736.0,
          1736.0,
          1736.0,
          1736.0,
          1732.0,
          1734.0,
          1737.0,
          1739.0,
          1733.0,
          1734.0,
          1734.0,
          1734.0,
          1740.0,
          1740.0,
          1738.0,
          1737.0,
          1738.0,
          1736.0,
          1737.0,
          1729.0,
          1723.0,
          1727.0
        ]
      },
      "slices": {}
    }
  },
  "dummy_trs": 0,
  "dvars_nstd": 35.707518249520014,
  "dvars_std": 1.3414327463999998,
  "dvars_vstd": 1.0587705141600001,
  "efc": 0.562301215376142,
  "fber": 1732.56396484375,
  "fd_mean": 0.46114933975304845,
  "fd_num": 102,
  "fd_perc": 80.95238095238095,
  "fwhm_avg": 1.7835369777801988,
  "fwhm_x": 1.6940633333333333,
  "fwhm_y": 1.9783233333333332,
  "fwhm_z": 1.67822426667393,
  "gcor": 0.0393037,
  "gsr_x": -0.004330215509980917,
  "gsr_y": 0.04268050566315651,
  "provenance": {
    "md5sum": "6e7063114e56670aceb804601172506a",
    "settings": {
      "fd_thres": 0.2,
      "testing": false
    },
    "software": "mriqc",
    "version": "22.0.1",
    "webapi_port": null,
    "webapi_url": "https://mriqc.nimh.nih.gov/api/v1"
  },
  "size_t": 126,
  "size_x": 64,
  "size_y": 64,
  "size_z": 34,
  "snr": 6.573956969961313,
  "spacing_tr": 2.3399999141693115,
  "spacing_x": 3.0,
  "spacing_y": 3.0,
  "spacing_z": 3.299999952316284,
  "summary_bg_k": 71.9462436857687,
  "summary_bg_mad": 9.70751708445082,
  "summary_bg_mean": 34.384700775146484,
  "summary_bg_median": 22.27777862548828,
  "summary_bg_n": 73629.0,
  "summary_bg_p05": 12.53968334197998,
  "summary_bg_p95": 92.66825866699205,
  "summary_bg_stdv": 47.73094940185547,
  "summary_fg_k": 0.9370602409475866,
  "summary_fg_mad": 152.20209411864627,
  "summary_fg_mean": 956.2550659179688,
  "summary_fg_median": 954.5397338867188,
  "summary_fg_n": 33511.0,
  "summary_fg_p05": 731.7738647460938,
  "summary_fg_p95": 1181.5596313476562,
  "summary_fg_stdv": 145.19801330566406,
  "tsnr": 52.34016253030859
}