{
  "aor": 0.0053499212598425204,
  "aqi": 0.011944803543307085,
  "bids_meta": {
    "AcquisitionMatrixPE": 64,
    "AcquisitionNumber": 1,
    "AcquisitionTime": "12:00:16.867500",
    "BandwidthPerPixelPhaseEncode": 24.038,
    "BaseResolution": 64,
    "BodyPartExamined": "HEAD",
    "ConsistencyInfo": "N4_VD13A_LATEST_20120616",
    "ConversionSoftware": "dcm2niix",
    "ConversionSoftwareVersion": "v1.0.20181125  GCC6.3.0",
    "DerivedVendorReportedEchoSpacing": 0.000650012,
    "DeviceSerialNumber": "45250",
    "DwellTime": 4.6e-06,
    "EchoTime": 0.033,
    "EchoTrainLength": 64,
    "EffectiveEchoSpacing": 0.000650012,
    "FlipAngle": 90,
    "ImageOrientationPatientDICOM": [
      0.999668,
      -0.0247804,
      -0.00705532,
      0.0226856,
      0.976361,
      -0.214952
    ],
    "ImageType": [
      "ORIGINAL",
      "PRIMARY",
      "M",
      "ND",
      "NORM",
      "MOSAIC"
    ],
    "ImagingFrequency": 123.214,
    "InPlanePhaseEncodingDirectionDICOM": "COL",
    "InstitutionAddress": "Kopernikusstr._26_Graz_Graz_AT_8010",
    "InstitutionName": "KFU",
    "InstitutionalDepartmentName": "Department",
    "MRAcquisitionType": "2D",
    "MagneticFieldStrength": 3,
    "Manufacturer": "Siemens",
    "ManufacturersModelName": "Skyra",
    "Modality": "MR",
    "PartialFourier": 1,
    "PatientPosition": "HFS",
    "PercentPhaseFOV": 100,
    "PhaseEncodingDirection": "j-",
    "PhaseEncodingSteps": 64,
    "PhaseResolution": 1,
    "PixelBandwidth": 1700,
    "ProcedureStepDescription": "KFU_Entw-Psy",
    "ProtocolName": "fMRI_2",
    "PulseSequenceDetails": "%SiemensSeq%_ep2d_pace",
    "ReceiveCoilActiveElements": "HE1-4",
    "ReceiveCoilName": "HeadNeck_20",
    "ReconMatrixPE": 64,
    "RepetitionTime": 2.34,
    "SAR": 0.189338,
    "ScanOptions": "FS",
    "ScanningSequence": "EP",
    "SequenceName": "_epfid2d1_64",
    "SequenceVariant": "SK",
    "SeriesDescription": "fMRI_2",
    "SeriesNumber": 5,
    "ShimSetting": [
      -1606,
      -3700,
      -4270,
      512,
      284,
      333,
      428,
      -214
    ],
    "SliceThickness": 3,
    "SliceTiming": [
      2.25,
      2.1825,
      2.115,
      2.045,
      1.9775,
      1.91,
      1.84,
      1.7725,
      1.705,
      1.6375,
      1.5675,
      1.5,
      1.4325,
      1.3625,
      1.295,
      1.2275,
      1.16,
      1.09,
      1.0225,
      0.955,
      0.885,
      0.8175,
      0.75,
      0.68,
      0.6125,
      0.545,
      0.4775,
      0.4075,
      0.34,
      0.2725,
      0.2025,
      0.135,
      0.0675,
      0
    ],
    "SoftwareVersions": "syngo_MR_D13",
    "SpacingBetweenSlices": 3.3,
    "StationName": "FBMTMR1",
    "TaskName": "read",
    "TotalReadoutTime": 0.0409508,
    "TxRefAmp": 390.623,
    "dataset": "ds003126",
    "dcmmeta_affine": [
      [
        -2.9990041255950928,
        0.06805692613124847,
        -0.04030996561050415,
        93.97261810302734
      ],
      [
        0.07434134185314178,
        2.9290833473205566,
        -0.7085778713226318,
        -110.06099700927734
      ],
      [
        -0.021165946498513222,
        0.6448559761047363,
        3.2227771282196045,
        -22.703311920166016
      ],
      [
        0.0,
        0.0,
        0.0,
        1.0
      ]
    ],
    "dcmmeta_reorient_transform": [
      [
        0.0,
        -1.0,
        0.0,
        63.0
      ],
      [
        1.0,
        0.0,
        0.0,
        0.0
      ],
      [
        0.0,
        0.0,
        1.0,
        0.0
      ],
      [
        0.0,
        0.0,
        0.0,
        1.0
      ]
    ],
    "dcmmeta_shape": [
      64,
      64,
      34,
      127
    ],
    "dcmmeta_slice_dim": 2,
    "dcmmeta_version": 0.6,
    "global": {
      "const": {
        "AcquisitionMatrix": [
          64,
          0,
          0,
          64
        ],
        "AngioFlag": "N",
        "BitsAllocated": 16,
        "BitsStored": 12,
        "BodyPartExamined": "HEAD",
        "Columns": 384,
        "EchoNumbers": 1,
        "EchoTime": 33.0,
        "EchoTrainLength": 64,
        "FlipAngle": 90.0,
        "HighBit": 11,
        "ImageOrientationPatient": [
          0.9996680208484,
          -0.0247804483285,
          -0.0070553152785,
          0.02268564299178,
          0.97636110352811,
          -0.2149519879401
        ],
        "ImagePositionPatient": [
          -588.9899650403,
          -531.22996232357,
          124.4861202415
        ],
        "ImageType": [
          "ORIGINAL",
          "PRIMARY",
          "M",
          "ND",
          "NORM",
          "MOSAIC"
        ],
        "ImagedNucleus": "1H",
        "ImagingFrequency": 123.214244,
        "InPlanePhaseEncodingDirection": "COL",
        "MRAcquisitionType": "2D",
        "MagneticFieldStrength": 3.0,
        "Manufacturer": "SIEMENS",
        "ManufacturerModelName": "Skyra",
        "Modality": "MR",
        "NumberOfAverages": 1.0,
        "NumberOfPhaseEncodingSteps": 64,
        "PercentPhaseFieldOfView": 100.0,
        "PercentSampling": 100.0,
        "PerformedProcedureStepStartTime": "113607.240000",
        "PhotometricInterpretation": "MONOCHROME2",
        "PixelBandwidth": 1700.0,
        "PixelRepresentation": 0,
        "PixelSpacing": [
          3.0,
          3.0
        ],
        "ProtocolName": "fMRI_2",
        "RepetitionTime": 2340.0,
        "Rows": 384,
        "SAR": 0.18933758330215,
        "SamplesPerPixel": 1,
        "ScanOptions": "FS",
        "ScanningSequence": "EP",
        "SequenceName": "*epfid2d1_64",
        "SequenceVariant": "SK",
        "SeriesDescription": "fMRI_2",
        "SeriesNumber": 5,
        "SeriesTime": "120108.095000",
        "SliceLocation": 0.31243850495563,
        "SliceThickness": 3.0,
        "SmallestImagePixelValue": 0,
        "SoftwareVersions": "syngo MR D13",
        "SpacingBetweenSlices": 3.2999998892825,
        "SpecificCharacterSet": "ISO_IR 100",
        "StudyID": "1",
        "StudyTime": "113607.190000",
        "TransmitCoilName": "Body",
        "VariableFlipAngleFlag": "N",
        "WindowCenterWidthExplanation": "Algo1",
        "dBdt": 0.0
      },
      "slices": {}
    },
    "modality": "bold",
    "run_id": 2,
    "session_id": "2",
    "subject_id": "047EPKL013035",
    "task_id": "read",
    "time": {
      "samples": {
        "AcquisitionNumber": [
          1,
          2,
          3,
          4,
          5,
          6,
          7,
          8,
          9,
          10,
          11,
          12,
          13,
          14,
          15,
          16,
          17,
          18,
          19,
          20,
          21,
          22,
          23,
          24,
          25,
          26,
          27,
          28,
          29,
          30,
          31,
          32,
          33,
          34,
          35,
          36,
          37,
          38,
          39,
          40,
          41,
          42,
          43,
          44,
          45,
          46,
          47,
          48,
          49,
          50,
          51,
          52,
          53,
          54,
          55,
          56,
          57,
          58,
          59,
          60,
          61,
          62,
          63,
          64,
          65,
          66,
          67,
          68,
          69,
          70,
          71,
          72,
          73,
          74,
          75,
          76,
          77,
          78,
          79,
          80,
          81,
          82,
          83,
          84,
          85,
          86,
          87,
          88,
          89,
          90,
          91,
          92,
          93,
          94,
          95,
          96,
          97,
          98,
          99,
          100,
          101,
          102,
          103,
          104,
          105,
          106,
          107,
          108,
          109,
          110,
          111,
          112,
          113,
          114,
          115,
          116,
          117,
          118,
          119,
          120,
          121,
          122,
          123,
          124,
          125,
          126,
          127
        ],
        "AcquisitionTime": [
          "120016.867500",
          "120019.207500",
          "120021.547500",
          "120023.887500",
          "120026.227500",
          "120028.567500",
          "120030.907500",
          "120033.247500",
          "120035.587500",
          "120037.927500",
          "120040.267500",
          "120042.607500",
          "120044.947500",
          "120047.287500",
          "120049.627500",
          "120051.967500",
          "120054.307500",
          "120056.647500",
          "120058.987500",
          "120101.327500",
          "120103.667500",
          "120106.007500",
          "120108.347500",
          "120110.687500",
          "120113.027500",
          "120115.367500",
          "120117.707500",
          "120120.047500",
          "120122.387500",
          "120124.727500",
          "120127.067500",
          "120129.407500",
          "120131.747500",
          "120134.087500",
          "120136.427500",
          "120138.767500",
          "120141.107500",
          "120143.447500",
          "120145.787500",
          "120148.127500",
          "120150.467500",
          "120152.807500",
          "120155.147500",
          "120157.487500",
          "120159.827500",
          "120202.167500",
          "120204.507500",
          "120206.847500",
          "120209.187500",
          "120211.527500",
          "120213.867500",
          "120216.207500",
          "120218.547500",
          "120220.887500",
          "120223.227500",
          "120225.567500",
          "120227.907500",
          "120230.247500",
          "120232.587500",
          "120234.927500",
          "120237.267500",
          "120239.607500",
          "120241.947500",
          "120244.287500",
          "120246.627500",
          "120248.967500",
          "120251.307500",
          "120253.647500",
          "120255.987500",
          "120258.327500",
          "120300.667500",
          "120303.007500",
          "120305.347500",
          "120307.687500",
          "120310.027500",
          "120312.367500",
          "120314.707500",
          "120317.047500",
          "120319.387500",
          "120321.727500",
          "120324.067500",
          "120326.407500",
          "120328.747500",
          "120331.087500",
          "120333.427500",
          "120335.767500",
          "120338.107500",
          "120340.447500",
          "120342.787500",
          "120345.127500",
          "120347.467500",
          "120349.807500",
          "120352.147500",
          "120354.487500",
          "120356.827500",
          "120359.167500",
          "120401.507500",
          "120403.847500",
          "120406.187500",
          "120408.527500",
          "120410.867500",
          "120413.207500",
          "120415.547500",
          "120417.887500",
          "120420.227500",
          "120422.567500",
          "120424.907500",
          "120427.247500",
          "120429.587500",
          "120431.927500",
          "120434.267500",
          "120436.607500",
          "120438.947500",
          "120441.287500",
          "120443.627500",
          "120445.967500",
          "120448.307500",
          "120450.647500",
          "120452.987500",
          "120455.327500",
          "120457.667500",
          "120500.007500",
          "120502.347500",
          "120504.687500",
          "120507.027500",
          "120509.367500",
          "120511.707500"
        ],
        "ContentTime": [
          "120108.100000",
          "120108.114000",
          "120108.117000",
          "120108.120000",
          "120108.125000",
          "120108.127000",
          "120108.131000",
          "120108.134000",
          "120108.137000",
          "120108.139000",
          "120108.142000",
          "120108.145000",
          "120108.148000",
          "120108.151000",
          "120108.154000",
          "120108.161000",
          "120108.164000",
          "120108.167000",
          "120108.170000",
          "120108.173000",
          "120108.176000",
          "120108.178000",
          "120208.075000",
          "120208.079000",
          "120208.081000",
          "120208.084000",
          "120208.087000",
          "120208.090000",
          "120208.092000",
          "120208.095000",
          "120208.099000",
          "120208.101000",
          "120208.104000",
          "120208.107000",
          "120208.110000",
          "120208.113000",
          "120208.116000",
          "120208.119000",
          "120208.122000",
          "120208.125000",
          "120208.128000",
          "120208.131000",
          "120208.134000",
          "120208.137000",
          "120208.139000",
          "120208.142000",
          "120208.145000",
          "120208.148000",
          "120308.076000",
          "120308.080000",
          "120308.083000",
          "120308.095000",
          "120308.098000",
          "120308.101000",
          "120308.103000",
          "120308.107000",
          "120308.110000",
          "120308.112000",
          "120308.115000",
          "120308.118000",
          "120308.121000",
          "120308.124000",
          "120308.127000",
          "120308.130000",
          "120308.133000",
          "120308.135000",
          "120308.138000",
          "120308.141000",
          "120308.144000",
          "120308.154000",
          "120308.157000",
          "120308.160000",
          "120308.163000",
          "120408.076000",
          "120408.079000",
          "120408.082000",
          "120408.085000",
          "120408.095000",
          "120408.098000",
          "120408.100000",
          "120408.103000",
          "120408.107000",
          "120408.110000",
          "120408.113000",
          "120408.115000",
          "120408.119000",
          "120408.121000",
          "120408.124000",
          "120408.127000",
          "120408.130000",
          "120408.133000",
          "120408.136000",
          "120408.139000",
          "120408.142000",
          "120408.145000",
          "120408.147000",
          "120408.150000",
          "120408.153000",
          "120408.156000",
          "120508.075000",
          "120508.078000",
          "120508.081000",
          "120508.084000",
          "120508.087000",
          "120508.090000",
          "120508.092000",
          "120508.095000",
          "120508.098000",
          "120508.101000",
          "120508.104000",
          "120508.107000",
          "120508.110000",
          "120508.113000",
          "120508.116000",
          "120508.119000",
          "120508.122000",
          "120508.126000",
          "120508.128000",
          "120508.131000",
          "120508.134000",
          "120508.137000",
          "120508.140000",
          "120508.143000",
          "120508.146000",
          "120508.149000",
          "120514.124000",
          "120514.129000"
        ],
        "InstanceCreationTime": [
          "120108.100000",
          "120108.114000",
          "120108.117000",
          "120108.120000",
          "120108.125000",
          "120108.127000",
          "120108.131000",
          "120108.134000",
          "120108.137000",
          "120108.139000",
          "120108.142000",
          "120108.145000",
          "120108.148000",
          "120108.151000",
          "120108.154000",
          "120108.161000",
          "120108.164000",
          "120108.167000",
          "120108.170000",
          "120108.173000",
          "120108.176000",
          "120108.178000",
          "120208.075000",
          "120208.079000",
          "120208.081000",
          "120208.084000",
          "120208.087000",
          "120208.090000",
          "120208.092000",
          "120208.095000",
          "120208.099000",
          "120208.101000",
          "120208.104000",
          "120208.107000",
          "120208.110000",
          "120208.113000",
          "120208.116000",
          "120208.119000",
          "120208.122000",
          "120208.125000",
          "120208.128000",
          "120208.131000",
          "120208.134000",
          "120208.137000",
          "120208.139000",
          "120208.142000",
          "120208.145000",
          "120208.148000",
          "120308.076000",
          "120308.080000",
          "120308.083000",
          "120308.095000",
          "120308.098000",
          "120308.101000",
          "120308.103000",
          "120308.107000",
          "120308.110000",
          "120308.112000",
          "120308.115000",
          "120308.118000",
          "120308.121000",
          "120308.124000",
          "120308.127000",
          "120308.130000",
          "120308.133000",
          "120308.135000",
          "120308.138000",
          "120308.141000",
          "120308.144000",
          "120308.154000",
          "120308.157000",
          "120308.160000",
          "120308.163000",
          "120408.076000",
          "120408.079000",
          "120408.082000",
          "120408.085000",
          "120408.095000",
          "120408.098000",
          "120408.100000",
          "120408.103000",
          "120408.107000",
          "120408.110000",
          "120408.113000",
          "120408.115000",
          "120408.119000",
          "120408.121000",
          "120408.124000",
          "120408.127000",
          "120408.130000",
          "120408.133000",
          "120408.136000",
          "120408.139000",
          "120408.142000",
          "120408.145000",
          "120408.147000",
          "120408.150000",
          "120408.153000",
          "120408.156000",
          "120508.075000",
          "120508.078000",
          "120508.081000",
          "120508.084000",
          "120508.087000",
          "120508.090000",
          "120508.092000",
          "120508.095000",
          "120508.098000",
          "120508.101000",
          "120508.104000",
          "120508.107000",
          "120508.110000",
          "120508.113000",
          "120508.116000",
          "120508.119000",
          "120508.122000",
          "120508.126000",
          "120508.128000",
          "120508.131000",
          "120508.134000",
          "120508.137000",
          "120508.140000",
          "120508.143000",
          "120508.146000",
          "120508.149000",
          "120514.124000",
          "120514.129000"
        ],
        "InstanceNumber": [
          1,
          2,
          3,
          4,
          5,
          6,
          7,
          8,
          9,
          10,
          11,
          12,
          13,
          14,
          15,
          16,
          17,
          18,
          19,
          20,
          21,
          22,
          23,
          24,
          25,
          26,
          27,
          28,
          29,
          30,
          31,
          32,
          33,
          34,
          35,
          36,
          37,
          38,
          39,
          40,
          41,
          42,
          43,
          44,
          45,
          46,
          47,
          48,
          49,
          50,
          51,
          52,
          53,
          54,
          55,
          56,
          57,
          58,
          59,
          60,
          61,
          62,
          63,
          64,
          65,
          66,
          67,
          68,
          69,
          70,
          71,
          72,
          73,
          74,
          75,
          76,
          77,
          78,
          79,
          80,
          81,
          82,
          83,
          84,
          85,
          86,
          87,
          88,
          89,
          90,
          91,
          92,
          93,
          94,
          95,
          96,
          97,
          98,
          99,
          100,
          101,
          102,
          103,
          104,
          105,
          106,
          107,
          108,
          109,
          110,
          111,
          112,
          113,
          114,
          115,
          116,
          117,
          118,
          119,
          120,
          121,
          122,
          123,
          124,
          125,
          126,
          127
        ],
        "LargestImagePixelValue": [
          2159,
          1739,
          1840,
          2169,
          2136,
          1768,
          1681,
          1808,
          2079,
          1672,
          1708,
          1816,
          1670,
          1717,
          1848,
          1717,
          2225,
          1950,
          1754,
          1750,
          1683,
          1701,
          2103,
          2640,
          1700,
          1705,
          1727,
          1938,
          1955,
          1754,
          1954,
          1739,
          1752,
          1715,
          1801,
          1792,
          1689,
          1710,
          1745,
          1726,
          2210,
          1780,
          1736,
          1690,
          1720,
          1805,
          1805,
          1739,
          1743,
          2436,
          1770,
          1704,
          1778,
          1735,
          1703,
          1761,
          1823,
          1724,
          1724,
          1954,
          1740,
          2012,
          1750,
          2113,
          1782,
          1775,
          1732,
          1754,
          2084,
          1804,
          1743,
          1773,
          1741,
          1763,
          1754,
          2088,
          1754,
          1741,
          2025,
          2037,
          1755,
          1767,
          1739,
          1749,
          1921,
          1745,
          1733,
          1715,
          1749,
          1745,
          2054,
          1748,
          1620,
          1684,
          1717,
          1737,
          2122,
          1760,
          1754,
          1713,
          2079,
          1792,
          1760,
          1975,
          1701,
          1991,
          1923,
          1778,
          1766,
          1850,
          1852,
          1962,
          1705,
          1951,
          1746,
          1705,
          1723,
          1768,
          1839,
          1748,
          1749,
          1751,
          1715,
          1822,
          1988,
          2203,
          1727
        ],
        "WindowCenter": [
          810.0,
          807.0,
          809.0,
          810.0,
          808.0,
          807.0,
          806.0,
          807.0,
          806.0,
          805.0,
          806.0,
          808.0,
          808.0,
          812.0,
          808.0,
          808.0,
          807.0,
          806.0,
          808.0,
          809.0,
          808.0,
          810.0,
          809.0,
          810.0,
          810.0,
          816.0,
          809.0,
          809.0,
          810.0,
          808.0,
          808.0,
          807.0,
          808.0,
          811.0,
          807.0,
          811.0,
          810.0,
          810.0,
          811.0,
          811.0,
          810.0,
          811.0,
          811.0,
          810.0,
          811.0,
          811.0,
          812.0,
          811.0,
          811.0,
          812.0,
          807.0,
          810.0,
          808.0,
          812.0,
          812.0,
          815.0,
          812.0,
          813.0,
          812.0,
          814.0,
          814.0,
          816.0,
          814.0,
          814.0,
          812.0,
          814.0,
          812.0,
          812.0,
          814.0,
          811.0,
          811.0,
          812.0,
          812.0,
          813.0,
          813.0,
          814.0,
          811.0,
          811.0,
          811.0,
          813.0,
          810.0,
          812.0,
          811.0,
          812.0,
          814.0,
          812.0,
          813.0,
          814.0,
          814.0,
          815.0,
          813.0,
          812.0,
          811.0,
          812.0,
          813.0,
          813.0,
          812.0,
          811.0,
          813.0,
          813.0,
          814.0,
          812.0,
          810.0,
          812.0,
          812.0,
          812.0,
          812.0,
          811.0,
          812.0,
          814.0,
          811.0,
          811.0,
          811.0,
          812.0,
          810.0,
          811.0,
          812.0,
          813.0,
          812.0,
          811.0,
          812.0,
          814.0,
          813.0,
          813.0,
          812.0,
          811.0,
          809.0
        ],
        "WindowWidth": [
          1735.0,
          1727.0,
          1732.0,
          1735.0,
          1730.0,
          1725.0,
          1724.0,
          1726.0,
          1726.0,
          1722.0,
          1724.0,
          1729.0,
          1727.0,
          1741.0,
          1732.0,
          1728.0,
          1727.0,
          1724.0,
          1730.0,
          1732.0,
          1728.0,
          1737.0,
          1735.0,
          1738.0,
          1731.0,
          1751.0,
          1736.0,
          1732.0,
          1735.0,
          1729.0,
          1731.0,
          1728.0,
          1730.0,
          1735.0,
          1727.0,
          1738.0,
          1734.0,
          1736.0,
          1739.0,
          1738.0,
          1739.0,
          1737.0,
          1737.0,
          1735.0,
          1736.0,
          1739.0,
          1739.0,
          1739.0,
          1737.0,
          1742.0,
          1727.0,
          1735.0,
          1731.0,
          1739.0,
          1741.0,
          1751.0,
          1744.0,
          1742.0,
          1740.0,
          1747.0,
          1745.0,
          1750.0,
          1744.0,
          1747.0,
          1742.0,
          1747.0,
          1740.0,
          1742.0,
          1747.0,
          1738.0,
          1740.0,
          1742.0,
          1741.0,
          1744.0,
          1744.0,
          1748.0,
          1736.0,
          1736.0,
          1739.0,
          1741.0,
          1735.0,
          1745.0,
          1740.0,
          1741.0,
          1747.0,
          1740.0,
          1742.0,
          1748.0,
          1745.0,
          1749.0,
          1744.0,
          1739.0,
          1736.0,
          1740.0,
          1741.0,
          1742.0,
          1740.0,
          1737.0,
          1742.0,
          1744.0,
          1746.0,
          1738.0,
          1736.0,
          1742.0,
          1739.0,
          1741.0,
          1741.0,
          1736.0,
          1740.0,
          1747.0,
          1739.0,
          1738.0,
          1740.0,
          1740.0,
          1734.0,
          1737.0,
          1741.0,
          1742.0,
          1742.0,
          1737.0,
          1741.0,
          1746.0,
          1741.0,
          1744.0,
          1742.0,
          1737.0,
          1732.0
        ]
      },
      "slices": {}
    }
  },
  "dummy_trs": 0,
  "dvars_nstd": 36.06490434904761,
  "dvars_std": 1.3267662005555547,
  "dvars_vstd": 1.0366951480158728,
  "efc": 0.5627592826242099,
  "fber": 1723.2037353515625,
  "fd_mean": 0.4690768263948831,
  "fd_num": 110,
  "fd_perc": 86.61417322834646,
  "fwhm_avg": 1.7789834423584585,
  "fwhm_x": 1.7009100000000001,
  "fwhm_y": 1.9719766666666667,
  "fwhm_z": 1.6640636604087087,
  "gcor": 0.0731077,
  "gsr_x": -0.004623922519385815,
  "gsr_y": 0.04290561378002167,
  "provenance": {
    "md5sum": "600f79509f86fe673770006437741d9f",
    "settings": {
      "fd_thres": 0.2,
      "testing": false
    },
    "software": "mriqc",
    "version": "22.0.1",
    "webapi_port": null,
    "webapi_url": "https://mriqc.nimh.nih.gov/api/v1"
  },
  "size_t": 127,
  "size_x": 64,
  "size_y": 64,
  "size_z": 34,
  "snr": 6.591914641398832,
  "spacing_tr": 2.3399999141693115,
  "spacing_x": 3.0,
  "spacing_y": 3.0,
  "spacing_z": 3.299999952316284,
  "summary_bg_k": 79.84010518505653,
  "summary_bg_mad": 9.730306641486147,
  "summary_bg_mean": 34.6761360168457,
  "summary_bg_median": 22.27952766418457,
  "summary_bg_n": 73676.0,
  "summary_bg_p05": 12.543307304382324,
  "summary_bg_p95": 92.66141510009766,
  "summary_bg_stdv": 48.90696334838867,
  "summary_fg_k": 0.883289460732652,
  "summary_fg_mad": 152.03097590604898,
  "summary_fg_mean": 952.7094116210938,
  "summary_fg_median": 951.3936767578125,
  "summary_fg_n": 33481.0,
  "summary_fg_p05": 729.4330444335938,
  "summary_fg_p95": 1176.7086181640625,
  "summary_fg_stdv": 144.32521057128906,
  "tsnr": 55.51786258001812
}