{
  "aor": 0.015764094488188975,
  "aqi": 0.029280973779527555,
  "bids_meta": {
    "AcquisitionMatrixPE": 64,
    "AcquisitionNumber": 1,
    "AcquisitionTime": "09:41:16.737500",
    "BandwidthPerPixelPhaseEncode": 24.038,
    "BaseResolution": 64,
    "BodyPartExamined": "HEAD",
    "ConsistencyInfo": "N4_VD13A_LATEST_20120616",
    "ConversionSoftware": "dcm2niix",
    "ConversionSoftwareVersion": "v1.0.20181125  GCC6.3.0",
    "DerivedVendorReportedEchoSpacing": 0.000650012,
    "DeviceSerialNumber": "45250",
    "DwellTime": 4.6e-06,
    "EchoTime": 0.033,
    "EchoTrainLength": 64,
    "EffectiveEchoSpacing": 0.000650012,
    "FlipAngle": 90,
    "ImageOrientationPatientDICOM": [
      0.999871,
      0.00836019,
      -0.0137462,
      -0.010471,
      0.986822,
      -0.16147
    ],
    "ImageType": [
      "ORIGINAL",
      "PRIMARY",
      "M",
      "ND",
      "NORM",
      "MOSAIC"
    ],
    "ImagingFrequency": 123.214,
    "InPlanePhaseEncodingDirectionDICOM": "COL",
    "InstitutionAddress": "Kopernikusstr._26_Graz_Graz_AT_8010",
    "InstitutionName": "KFU",
    "InstitutionalDepartmentName": "Department",
    "MRAcquisitionType": "2D",
    "MagneticFieldStrength": 3,
    "Manufacturer": "Siemens",
    "ManufacturersModelName": "Skyra",
    "Modality": "MR",
    "PartialFourier": 1,
    "PatientPosition": "HFS",
    "PercentPhaseFOV": 100,
    "PhaseEncodingDirection": "j-",
    "PhaseEncodingSteps": 64,
    "PhaseResolution": 1,
    "PixelBandwidth": 1700,
    "ProcedureStepDescription": "KFU_Entw-Psy",
    "ProtocolName": "fMRI_3",
    "PulseSequenceDetails": "%SiemensSeq%_ep2d_pace",
    "ReceiveCoilActiveElements": "HE1-4",
    "ReceiveCoilName": "HeadNeck_20",
    "ReconMatrixPE": 64,
    "RepetitionTime": 2.34,
    "SAR": 0.164,
    "ScanOptions": "FS",
    "ScanningSequence": "EP",
    "SequenceName": "_epfid2d1_64",
    "SequenceVariant": "SK",
    "SeriesDescription": "fMRI_3",
    "SeriesNumber": 8,
    "ShimSetting": [
      -1581,
      -3699,
      -4363,
      389,
      118,
      8,
      524,
      -191
    ],
    "SliceThickness": 3,
    "SliceTiming": [
      2.25,
      2.1825,
      2.115,
      2.045,
      1.9775,
      1.91,
      1.84,
      1.7725,
      1.705,
      1.6375,
      1.5675,
      1.5,
      1.4325,
      1.3625,
      1.295,
      1.2275,
      1.1575,
      1.09,
      1.0225,
      0.955,
      0.885,
      0.8175,
      0.75,
      0.68,
      0.6125,
      0.545,
      0.4775,
      0.4075,
      0.34,
      0.2725,
      0.2025,
      0.135,
      0.0675,
      0
    ],
    "SoftwareVersions": "syngo_MR_D13",
    "SpacingBetweenSlices": 3.3,
    "StationName": "FBMTMR1",
    "TaskName": "read",
    "TotalReadoutTime": 0.0409508,
    "TxRefAmp": 348.818,
    "dataset": "ds003126",
    "dcmmeta_affine": [
      [
        -2.9996116161346436,
        -0.031412940472364426,
        -0.04030996188521385,
        98.55793762207031
      ],
      [
        -0.025080585852265358,
        2.960466146469116,
        -0.5332570672035217,
        -110.95186614990234
      ],
      [
        -0.04123862460255623,
        0.48441004753112793,
        3.256380081176758,
        -12.273672103881836
      ],
      [
        0.0,
        0.0,
        0.0,
        1.0
      ]
    ],
    "dcmmeta_reorient_transform": [
      [
        0.0,
        -1.0,
        0.0,
        63.0
      ],
      [
        1.0,
        0.0,
        0.0,
        0.0
      ],
      [
        0.0,
        0.0,
        1.0,
        0.0
      ],
      [
        0.0,
        0.0,
        0.0,
        1.0
      ]
    ],
    "dcmmeta_shape": [
      64,
      64,
      34,
      127
    ],
    "dcmmeta_slice_dim": 2,
    "dcmmeta_version": 0.6,
    "global": {
      "const": {
        "AcquisitionMatrix": [
          64,
          0,
          0,
          64
        ],
        "AngioFlag": "N",
        "BitsAllocated": 16,
        "BitsStored": 12,
        "BodyPartExamined": "HEAD",
        "Columns": 384,
        "EchoNumbers": 1,
        "EchoTime": 33.0,
        "EchoTrainLength": 64,
        "FlipAngle": 90.0,
        "HighBit": 11,
        "ImageOrientationPatient": [
          0.99987056607815,
          0.00836019504299,
          -0.0137462078191,
          -0.0104709806201,
          0.98682206771323,
          -0.1614700134361
        ],
        "ImagePositionPatient": [
          -571.49072050993,
          -553.24499143474,
          102.34794634841
        ],
        "ImageType": [
          "ORIGINAL",
          "PRIMARY",
          "M",
          "ND",
          "NORM",
          "MOSAIC"
        ],
        "ImagedNucleus": "1H",
        "ImagingFrequency": 123.21445,
        "InPlanePhaseEncodingDirection": "COL",
        "MRAcquisitionType": "2D",
        "MagneticFieldStrength": 3.0,
        "Manufacturer": "SIEMENS",
        "ManufacturerModelName": "Skyra",
        "Modality": "MR",
        "NumberOfAverages": 1.0,
        "NumberOfPhaseEncodingSteps": 64,
        "PercentPhaseFieldOfView": 100.0,
        "PercentSampling": 100.0,
        "PerformedProcedureStepStartTime": "092311.477000",
        "PhotometricInterpretation": "MONOCHROME2",
        "PixelBandwidth": 1700.0,
        "PixelRepresentation": 0,
        "PixelSpacing": [
          3.0,
          3.0
        ],
        "ProtocolName": "fMRI_3",
        "RepetitionTime": 2340.0,
        "Rows": 384,
        "SAR": 0.1640003200646,
        "SamplesPerPixel": 1,
        "ScanOptions": "FS",
        "ScanningSequence": "EP",
        "SequenceName": "*epfid2d1_64",
        "SequenceVariant": "SK",
        "SeriesDescription": "fMRI_3",
        "SeriesNumber": 8,
        "SeriesTime": "094219.036000",
        "SliceLocation": 4.6137138300895,
        "SliceThickness": 3.0,
        "SmallestImagePixelValue": 0,
        "SoftwareVersions": "syngo MR D13",
        "SpacingBetweenSlices": 3.2999999999208,
        "SpecificCharacterSet": "ISO_IR 100",
        "StudyID": "1",
        "StudyTime": "092311.421000",
        "TransmitCoilName": "Body",
        "VariableFlipAngleFlag": "N",
        "WindowCenterWidthExplanation": "Algo1",
        "dBdt": 0.0
      },
      "slices": {}
    },
    "modality": "bold",
    "run_id": 3,
    "session_id": "2",
    "subject_id": "047EPKL011011",
    "task_id": "read",
    "time": {
      "samples": {
        "AcquisitionNumber": [
          1,
          2,
          3,
          4,
          5,
          6,
          7,
          8,
          9,
          10,
          11,
          12,
          13,
          14,
          15,
          16,
          17,
          18,
          19,
          20,
          21,
          22,
          23,
          24,
          25,
          26,
          27,
          28,
          29,
          30,
          31,
          32,
          33,
          34,
          35,
          36,
          37,
          38,
          39,
          40,
          41,
          42,
          43,
          44,
          45,
          46,
          47,
          48,
          49,
          50,
          51,
          52,
          53,
          54,
          55,
          56,
          57,
          58,
          59,
          60,
          61,
          62,
          63,
          64,
          65,
          66,
          67,
          68,
          69,
          70,
          71,
          72,
          73,
          74,
          75,
          76,
          77,
          78,
          79,
          80,
          81,
          82,
          83,
          84,
          85,
          86,
          87,
          88,
          89,
          90,
          91,
          92,
          93,
          94,
          95,
          96,
          97,
          98,
          99,
          100,
          101,
          102,
          103,
          104,
          105,
          106,
          107,
          108,
          109,
          110,
          111,
          112,
          113,
          114,
          115,
          116,
          117,
          118,
          119,
          120,
          121,
          122,
          123,
          124,
          125,
          126,
          127
        ],
        "AcquisitionTime": [
          "094116.737500",
          "094119.077500",
          "094121.417500",
          "094123.757500",
          "094126.097500",
          "094128.437500",
          "094130.777500",
          "094133.117500",
          "094135.457500",
          "094137.797500",
          "094140.137500",
          "094142.477500",
          "094144.817500",
          "094147.157500",
          "094149.497500",
          "094151.837500",
          "094154.177500",
          "094156.517500",
          "094158.857500",
          "094201.197500",
          "094203.537500",
          "094205.877500",
          "094208.217500",
          "094210.557500",
          "094212.897500",
          "094215.237500",
          "094217.577500",
          "094219.917500",
          "094222.257500",
          "094224.597500",
          "094226.937500",
          "094229.277500",
          "094231.617500",
          "094233.957500",
          "094236.297500",
          "094238.637500",
          "094240.977500",
          "094243.317500",
          "094245.657500",
          "094247.997500",
          "094250.337500",
          "094252.677500",
          "094255.017500",
          "094257.357500",
          "094259.697500",
          "094302.037500",
          "094304.377500",
          "094306.717500",
          "094309.057500",
          "094311.397500",
          "094313.737500",
          "094316.077500",
          "094318.417500",
          "094320.757500",
          "094323.097500",
          "094325.437500",
          "094327.777500",
          "094330.117500",
          "094332.457500",
          "094334.797500",
          "094337.137500",
          "094339.477500",
          "094341.817500",
          "094344.157500",
          "094346.497500",
          "094348.837500",
          "094351.177500",
          "094353.517500",
          "094355.857500",
          "094358.197500",
          "094400.537500",
          "094402.877500",
          "094405.217500",
          "094407.557500",
          "094409.897500",
          "094412.237500",
          "094414.577500",
          "094416.917500",
          "094419.257500",
          "094421.597500",
          "094423.937500",
          "094426.277500",
          "094428.617500",
          "094430.957500",
          "094433.297500",
          "094435.637500",
          "094437.977500",
          "094440.317500",
          "094442.657500",
          "094444.997500",
          "094447.337500",
          "094449.677500",
          "094452.017500",
          "094454.357500",
          "094456.697500",
          "094459.037500",
          "094501.377500",
          "094503.717500",
          "094506.057500",
          "094508.397500",
          "094510.737500",
          "094513.077500",
          "094515.417500",
          "094517.757500",
          "094520.097500",
          "094522.437500",
          "094524.777500",
          "094527.117500",
          "094529.457500",
          "094531.797500",
          "094534.137500",
          "094536.477500",
          "094538.817500",
          "094541.157500",
          "094543.497500",
          "094545.837500",
          "094548.177500",
          "094550.517500",
          "094552.857500",
          "094555.197500",
          "094557.537500",
          "094559.877500",
          "094602.217500",
          "094604.557500",
          "094606.897500",
          "094609.237500",
          "094611.577500"
        ],
        "ContentTime": [
          "094219.040000",
          "094219.044000",
          "094219.047000",
          "094219.049000",
          "094219.059000",
          "094219.062000",
          "094219.065000",
          "094219.067000",
          "094219.070000",
          "094219.073000",
          "094219.076000",
          "094219.078000",
          "094219.081000",
          "094219.084000",
          "094219.087000",
          "094219.090000",
          "094219.093000",
          "094219.095000",
          "094219.098000",
          "094219.101000",
          "094219.104000",
          "094219.107000",
          "094219.110000",
          "094219.113000",
          "094219.116000",
          "094219.119000",
          "094219.121000",
          "094319.036000",
          "094319.040000",
          "094319.042000",
          "094319.050000",
          "094319.066000",
          "094319.069000",
          "094319.072000",
          "094319.075000",
          "094319.078000",
          "094319.081000",
          "094319.084000",
          "094319.087000",
          "094319.090000",
          "094319.093000",
          "094319.096000",
          "094319.099000",
          "094319.102000",
          "094319.105000",
          "094319.107000",
          "094319.111000",
          "094319.113000",
          "094319.116000",
          "094319.119000",
          "094319.123000",
          "094319.138000",
          "094419.035000",
          "094419.045000",
          "094419.047000",
          "094419.051000",
          "094419.054000",
          "094419.057000",
          "094419.060000",
          "094419.063000",
          "094419.065000",
          "094419.068000",
          "094419.071000",
          "094419.074000",
          "094419.077000",
          "094419.080000",
          "094419.083000",
          "094419.086000",
          "094419.089000",
          "094419.092000",
          "094419.095000",
          "094419.097000",
          "094419.100000",
          "094419.103000",
          "094419.106000",
          "094419.109000",
          "094419.112000",
          "094419.115000",
          "094439.035000",
          "094439.038000",
          "094439.041000",
          "094439.044000",
          "094439.047000",
          "094439.050000",
          "094439.054000",
          "094439.056000",
          "094539.036000",
          "094539.047000",
          "094539.050000",
          "094539.053000",
          "094539.056000",
          "094539.060000",
          "094539.063000",
          "094539.065000",
          "094539.068000",
          "094539.071000",
          "094539.074000",
          "094539.077000",
          "094539.080000",
          "094539.083000",
          "094539.086000",
          "094539.088000",
          "094539.091000",
          "094539.095000",
          "094539.097000",
          "094539.100000",
          "094539.103000",
          "094539.106000",
          "094539.109000",
          "094539.112000",
          "094539.115000",
          "094539.118000",
          "094613.745000",
          "094613.748000",
          "094613.757000",
          "094613.760000",
          "094613.766000",
          "094613.769000",
          "094613.774000",
          "094613.776000",
          "094613.779000",
          "094613.782000",
          "094613.785000",
          "094613.789000",
          "094613.792000",
          "094613.795000",
          "094613.798000"
        ],
        "InstanceCreationTime": [
          "094219.040000",
          "094219.044000",
          "094219.047000",
          "094219.049000",
          "094219.059000",
          "094219.062000",
          "094219.065000",
          "094219.067000",
          "094219.070000",
          "094219.073000",
          "094219.076000",
          "094219.078000",
          "094219.081000",
          "094219.084000",
          "094219.087000",
          "094219.090000",
          "094219.093000",
          "094219.095000",
          "094219.098000",
          "094219.101000",
          "094219.104000",
          "094219.107000",
          "094219.110000",
          "094219.113000",
          "094219.116000",
          "094219.119000",
          "094219.121000",
          "094319.036000",
          "094319.040000",
          "094319.042000",
          "094319.050000",
          "094319.066000",
          "094319.069000",
          "094319.072000",
          "094319.075000",
          "094319.078000",
          "094319.081000",
          "094319.084000",
          "094319.087000",
          "094319.090000",
          "094319.093000",
          "094319.096000",
          "094319.099000",
          "094319.102000",
          "094319.105000",
          "094319.107000",
          "094319.111000",
          "094319.113000",
          "094319.116000",
          "094319.119000",
          "094319.123000",
          "094319.138000",
          "094419.035000",
          "094419.045000",
          "094419.047000",
          "094419.051000",
          "094419.054000",
          "094419.057000",
          "094419.060000",
          "094419.063000",
          "094419.065000",
          "094419.068000",
          "094419.071000",
          "094419.074000",
          "094419.077000",
          "094419.080000",
          "094419.083000",
          "094419.086000",
          "094419.089000",
          "094419.092000",
          "094419.095000",
          "094419.097000",
          "094419.100000",
          "094419.103000",
          "094419.106000",
          "094419.109000",
          "094419.112000",
          "094419.115000",
          "094439.035000",
          "094439.038000",
          "094439.041000",
          "094439.044000",
          "094439.047000",
          "094439.050000",
          "094439.054000",
          "094439.056000",
          "094539.036000",
          "094539.047000",
          "094539.050000",
          "094539.053000",
          "094539.056000",
          "094539.060000",
          "094539.063000",
          "094539.065000",
          "094539.068000",
          "094539.071000",
          "094539.074000",
          "094539.077000",
          "094539.080000",
          "094539.083000",
          "094539.086000",
          "094539.088000",
          "094539.091000",
          "094539.095000",
          "094539.097000",
          "094539.100000",
          "094539.103000",
          "094539.106000",
          "094539.109000",
          "094539.112000",
          "094539.115000",
          "094539.118000",
          "094613.745000",
          "094613.748000",
          "094613.757000",
          "094613.760000",
          "094613.766000",
          "094613.769000",
          "094613.774000",
          "094613.776000",
          "094613.779000",
          "094613.782000",
          "094613.785000",
          "094613.789000",
          "094613.792000",
          "094613.795000",
          "094613.798000"
        ],
        "InstanceNumber": [
          1,
          2,
          3,
          4,
          5,
          6,
          7,
          8,
          9,
          10,
          11,
          12,
          13,
          14,
          15,
          16,
          17,
          18,
          19,
          20,
          21,
          22,
          23,
          24,
          25,
          26,
          27,
          28,
          29,
          30,
          31,
          32,
          33,
          34,
          35,
          36,
          37,
          38,
          39,
          40,
          41,
          42,
          43,
          44,
          45,
          46,
          47,
          48,
          49,
          50,
          51,
          52,
          53,
          54,
          55,
          56,
          57,
          58,
          59,
          60,
          61,
          62,
          63,
          64,
          65,
          66,
          67,
          68,
          69,
          70,
          71,
          72,
          73,
          74,
          75,
          76,
          77,
          78,
          79,
          80,
          81,
          82,
          83,
          84,
          85,
          86,
          87,
          88,
          89,
          90,
          91,
          92,
          93,
          94,
          95,
          96,
          97,
          98,
          99,
          100,
          101,
          102,
          103,
          104,
          105,
          106,
          107,
          108,
          109,
          110,
          111,
          112,
          113,
          114,
          115,
          116,
          117,
          118,
          119,
          120,
          121,
          122,
          123,
          124,
          125,
          126,
          127
        ],
        "LargestImagePixelValue": [
          2160,
          1961,
          1963,
          1971,
          2078,
          1951,
          2234,
          2881,
          1990,
          1886,
          2549,
          1892,
          2275,
          2415,
          1903,
          2226,
          2516,
          1903,
          2722,
          1956,
          2056,
          2450,
          1917,
          1905,
          1973,
          2059,
          2481,
          2016,
          1976,
          2065,
          1966,
          2091,
          2376,
          1966,
          2076,
          2059,
          2055,
          1901,
          2089,
          2586,
          2399,
          1871,
          2189,
          1971,
          1945,
          1943,
          2881,
          1922,
          1817,
          2321,
          3157,
          2468,
          2389,
          1892,
          1871,
          2285,
          1813,
          2185,
          1943,
          1910,
          2031,
          1923,
          2211,
          2008,
          2266,
          2735,
          2186,
          2392,
          2582,
          1902,
          2379,
          2138,
          2017,
          1850,
          1925,
          2173,
          2188,
          1968,
          2621,
          2321,
          2814,
          1921,
          2533,
          1899,
          2055,
          1897,
          2037,
          1890,
          2601,
          2468,
          1837,
          1874,
          1877,
          2011,
          2476,
          1809,
          2377,
          2230,
          3117,
          1930,
          2826,
          2088,
          1987,
          2120,
          2355,
          2443,
          2476,
          2775,
          2215,
          2984,
          2025,
          1968,
          1923,
          1988,
          2054,
          1879,
          1843,
          1928,
          1936,
          2058,
          2059,
          2191,
          1993,
          2551,
          2793,
          2309,
          1791
        ],
        "WindowCenter": [
          823.0,
          823.0,
          823.0,
          822.0,
          824.0,
          823.0,
          823.0,
          824.0,
          820.0,
          822.0,
          823.0,
          823.0,
          824.0,
          826.0,
          825.0,
          828.0,
          825.0,
          824.0,
          824.0,
          824.0,
          826.0,
          825.0,
          823.0,
          823.0,
          827.0,
          826.0,
          823.0,
          822.0,
          823.0,
          823.0,
          822.0,
          823.0,
          822.0,
          826.0,
          823.0,
          823.0,
          822.0,
          827.0,
          826.0,
          826.0,
          823.0,
          827.0,
          825.0,
          827.0,
          827.0,
          826.0,
          825.0,
          826.0,
          823.0,
          823.0,
          819.0,
          820.0,
          813.0,
          816.0,
          817.0,
          820.0,
          821.0,
          823.0,
          821.0,
          825.0,
          826.0,
          829.0,
          826.0,
          827.0,
          827.0,
          827.0,
          826.0,
          825.0,
          826.0,
          825.0,
          825.0,
          825.0,
          824.0,
          826.0,
          826.0,
          828.0,
          826.0,
          829.0,
          829.0,
          827.0,
          827.0,
          827.0,
          827.0,
          826.0,
          827.0,
          828.0,
          829.0,
          830.0,
          830.0,
          828.0,
          826.0,
          829.0,
          828.0,
          828.0,
          828.0,
          830.0,
          827.0,
          825.0,
          822.0,
          823.0,
          815.0,
          817.0,
          815.0,
          825.0,
          822.0,
          819.0,
          808.0,
          817.0,
          818.0,
          812.0,
          809.0,
          818.0,
          817.0,
          823.0,
          824.0,
          823.0,
          824.0,
          828.0,
          825.0,
          828.0,
          828.0,
          830.0,
          827.0,
          826.0,
          825.0,
          825.0,
          826.0
        ],
        "WindowWidth": [
          1733.0,
          1730.0,
          1731.0,
          1730.0,
          1733.0,
          1731.0,
          1730.0,
          1735.0,
          1723.0,
          1729.0,
          1733.0,
          1732.0,
          1735.0,
          1737.0,
          1736.0,
          1741.0,
          1736.0,
          1734.0,
          1736.0,
          1733.0,
          1738.0,
          1737.0,
          1731.0,
          1730.0,
          1739.0,
          1739.0,
          1732.0,
          1728.0,
          1735.0,
          1733.0,
          1730.0,
          1730.0,
          1730.0,
          1739.0,
          1733.0,
          1731.0,
          1728.0,
          1741.0,
          1739.0,
          1738.0,
          1730.0,
          1742.0,
          1736.0,
          1742.0,
          1742.0,
          1739.0,
          1738.0,
          1740.0,
          1730.0,
          1732.0,
          1720.0,
          1724.0,
          1709.0,
          1715.0,
          1716.0,
          1725.0,
          1727.0,
          1732.0,
          1727.0,
          1736.0,
          1737.0,
          1746.0,
          1739.0,
          1742.0,
          1743.0,
          1740.0,
          1737.0,
          1736.0,
          1738.0,
          1737.0,
          1738.0,
          1736.0,
          1735.0,
          1737.0,
          1738.0,
          1744.0,
          1740.0,
          1746.0,
          1748.0,
          1742.0,
          1744.0,
          1742.0,
          1741.0,
          1737.0,
          1742.0,
          1744.0,
          1747.0,
          1748.0,
          1749.0,
          1743.0,
          1739.0,
          1746.0,
          1743.0,
          1745.0,
          1746.0,
          1747.0,
          1743.0,
          1735.0,
          1732.0,
          1733.0,
          1716.0,
          1716.0,
          1714.0,
          1736.0,
          1733.0,
          1712.0,
          1700.0,
          1722.0,
          1716.0,
          1703.0,
          1695.0,
          1719.0,
          1716.0,
          1731.0,
          1733.0,
          1730.0,
          1734.0,
          1745.0,
          1736.0,
          1744.0,
          1742.0,
          1748.0,
          1743.0,
          1738.0,
          1736.0,
          1735.0,
          1736.0
        ]
      },
      "slices": {}
    }
  },
  "dummy_trs": 0,
  "dvars_nstd": 48.83221924515872,
  "dvars_std": 1.3817750230158732,
  "dvars_vstd": 1.111341431666667,
  "efc": 0.5910399225790213,
  "fber": 1676.351806640625,
  "fd_mean": 0.7543918719459213,
  "fd_num": 111,
  "fd_perc": 87.4015748031496,
  "fwhm_avg": 1.6375762700067007,
  "fwhm_x": 1.5360866666666666,
  "fwhm_y": 1.84433,
  "fwhm_z": 1.5323121433534355,
  "gcor": 0.0765951,
  "gsr_x": -0.00569375092163682,
  "gsr_y": 0.0503411665558815,
  "provenance": {
    "md5sum": "dbb12ff2af271c15537d3f9ee64023dc",
    "settings": {
      "fd_thres": 0.2,
      "testing": false
    },
    "software": "mriqc",
    "version": "22.0.1",
    "webapi_port": null,
    "webapi_url": "https://mriqc.nimh.nih.gov/api/v1"
  },
  "size_t": 127,
  "size_x": 64,
  "size_y": 64,
  "size_z": 34,
  "snr": 6.8383904302317555,
  "spacing_tr": 2.3399999141693115,
  "spacing_x": 3.0,
  "spacing_y": 3.0,
  "spacing_z": 3.299999952316284,
  "summary_bg_k": 55.586885238497075,
  "summary_bg_mad": 10.518303861338815,
  "summary_bg_mean": 33.73065948486328,
  "summary_bg_median": 22.062992095947266,
  "summary_bg_n": 68709.0,
  "summary_bg_p05": 11.204724311828613,
  "summary_bg_p95": 95.6535415649414,
  "summary_bg_stdv": 42.38389587402344,
  "summary_fg_k": 2.92742204143825,
  "summary_fg_mad": 127.62636065872822,
  "summary_fg_mean": 931.3110961914062,
  "summary_fg_median": 926.99609375,
  "summary_fg_n": 38050.0,
  "summary_fg_p05": 743.1488098144531,
  "summary_fg_p95": 1135.9649353027344,
  "summary_fg_stdv": 135.5558624267578,
  "tsnr": 38.79615888989065
}