{
  "aor": 0.0066491472868217055,
  "aqi": 0.012834572713178295,
  "bids_meta": {
    "AcquisitionMatrixPE": 64,
    "AcquisitionNumber": 1,
    "AcquisitionTime": "12:14:1.882500",
    "BandwidthPerPixelPhaseEncode": 24.038,
    "BaseResolution": 64,
    "BodyPartExamined": "HEAD",
    "ConsistencyInfo": "N4_VD13A_LATEST_20120616",
    "ConversionSoftware": "dcm2niix",
    "ConversionSoftwareVersion": "v1.0.20181125  GCC6.3.0",
    "DerivedVendorReportedEchoSpacing": 0.000650012,
    "DeviceSerialNumber": "45250",
    "DwellTime": 4.6e-06,
    "EchoTime": 0.033,
    "EchoTrainLength": 64,
    "EffectiveEchoSpacing": 0.000650012,
    "FlipAngle": 90,
    "ImageOrientationPatientDICOM": [
      0.999802,
      -0.0159181,
      -0.0119376,
      0.0157061,
      0.999721,
      -0.0176434
    ],
    "ImageType": [
      "ORIGINAL",
      "PRIMARY",
      "M",
      "ND",
      "NORM",
      "MOSAIC"
    ],
    "ImagingFrequency": 123.214,
    "InPlanePhaseEncodingDirectionDICOM": "COL",
    "InstitutionAddress": "Kopernikusstr._26_Graz_Graz_AT_8010",
    "InstitutionName": "KFU",
    "InstitutionalDepartmentName": "Department",
    "MRAcquisitionType": "2D",
    "MagneticFieldStrength": 3,
    "Manufacturer": "Siemens",
    "ManufacturersModelName": "Skyra",
    "Modality": "MR",
    "PartialFourier": 1,
    "PatientPosition": "HFS",
    "PercentPhaseFOV": 100,
    "PhaseEncodingDirection": "j-",
    "PhaseEncodingSteps": 64,
    "PhaseResolution": 1,
    "PixelBandwidth": 1700,
    "ProcedureStepDescription": "KFU_Entw-Psy",
    "ProtocolName": "fMRI_2",
    "PulseSequenceDetails": "%SiemensSeq%_ep2d_pace",
    "ReceiveCoilActiveElements": "HE1-4",
    "ReceiveCoilName": "HeadNeck_20",
    "ReconMatrixPE": 64,
    "RepetitionTime": 2.34,
    "SAR": 0.189005,
    "ScanOptions": "FS",
    "ScanningSequence": "EP",
    "SequenceName": "_epfid2d1_64",
    "SequenceVariant": "SK",
    "SeriesDescription": "fMRI_2",
    "SeriesNumber": 5,
    "ShimSetting": [
      -1575,
      -3661,
      -4384,
      253,
      471,
      29,
      160,
      -264
    ],
    "SliceThickness": 3,
    "SliceTiming": [
      2.2525,
      2.1825,
      2.115,
      2.0475,
      1.98,
      1.91,
      1.8425,
      1.775,
      1.705,
      1.6375,
      1.57,
      1.5025,
      1.4325,
      1.365,
      1.2975,
      1.2275,
      1.16,
      1.0925,
      1.0225,
      0.955,
      0.8875,
      0.82,
      0.75,
      0.6825,
      0.615,
      0.545,
      0.4775,
      0.41,
      0.3425,
      0.2725,
      0.205,
      0.1375,
      0.0675,
      0
    ],
    "SoftwareVersions": "syngo_MR_D13",
    "SpacingBetweenSlices": 3.3,
    "StationName": "FBMTMR1",
    "TaskName": "read",
    "TotalReadoutTime": 0.0409508,
    "TxRefAmp": 398.938,
    "dataset": "ds003126",
    "dcmmeta_affine": [
      [
        -2.999406099319458,
        0.04711839184165001,
        -0.04030996188521385,
        95.37779235839844
      ],
      [
        0.04775424674153328,
        2.9991629123687744,
        -0.05759294331073761,
        -113.20491790771484
      ],
      [
        -0.0358128659427166,
        0.05293017998337746,
        3.2992513179779053,
        -14.808323860168457
      ],
      [
        0.0,
        0.0,
        0.0,
        1.0
      ]
    ],
    "dcmmeta_reorient_transform": [
      [
        0.0,
        -1.0,
        0.0,
        63.0
      ],
      [
        1.0,
        0.0,
        0.0,
        0.0
      ],
      [
        0.0,
        0.0,
        1.0,
        0.0
      ],
      [
        0.0,
        0.0,
        0.0,
        1.0
      ]
    ],
    "dcmmeta_shape": [
      64,
      64,
      34,
      129
    ],
    "dcmmeta_slice_dim": 2,
    "dcmmeta_version": 0.6,
    "global": {
      "const": {
        "AcquisitionMatrix": [
          64,
          0,
          0,
          64
        ],
        "AngioFlag": "N",
        "BitsAllocated": 16,
        "BitsStored": 12,
        "BodyPartExamined": "HEAD",
        "Columns": 384,
        "EchoNumbers": 1,
        "EchoTime": 33.0,
        "EchoTrainLength": 64,
        "FlipAngle": 90.0,
        "HighBit": 11,
        "ImageOrientationPatient": [
          0.99980203431597,
          -0.0159180827162,
          -0.0119376220537,
          0.0157061302871,
          0.99972097514143,
          -0.0176433934853
        ],
        "ImagePositionPatient": [
          -585.7901712972,
          -547.96773204339,
          2.7251645461291
        ],
        "ImageType": [
          "ORIGINAL",
          "PRIMARY",
          "M",
          "ND",
          "NORM",
          "MOSAIC"
        ],
        "ImagedNucleus": "1H",
        "ImagingFrequency": 123.214321,
        "InPlanePhaseEncodingDirection": "COL",
        "MRAcquisitionType": "2D",
        "MagneticFieldStrength": 3.0,
        "Manufacturer": "SIEMENS",
        "ManufacturerModelName": "Skyra",
        "Modality": "MR",
        "NumberOfAverages": 1.0,
        "NumberOfPhaseEncodingSteps": 64,
        "PercentPhaseFieldOfView": 100.0,
        "PercentSampling": 100.0,
        "PerformedProcedureStepStartTime": "120554.069000",
        "PhotometricInterpretation": "MONOCHROME2",
        "PixelBandwidth": 1700.0,
        "PixelRepresentation": 0,
        "PixelSpacing": [
          3.0,
          3.0
        ],
        "ProtocolName": "fMRI_2",
        "RepetitionTime": 2340.0,
        "Rows": 384,
        "SAR": 0.18900523022853,
        "SamplesPerPixel": 1,
        "ScanOptions": "FS",
        "ScanningSequence": "EP",
        "SequenceName": "*epfid2d1_64",
        "SequenceVariant": "SK",
        "SeriesDescription": "fMRI_2",
        "SeriesNumber": 5,
        "SeriesTime": "121447.367000",
        "SliceLocation": -13.994318704951,
        "SliceThickness": 3.0,
        "SmallestImagePixelValue": 0,
        "SoftwareVersions": "syngo MR D13",
        "SpacingBetweenSlices": 3.3000000865783,
        "SpecificCharacterSet": "ISO_IR 100",
        "StudyID": "1",
        "StudyTime": "120554.006000",
        "TransmitCoilName": "Body",
        "VariableFlipAngleFlag": "N",
        "WindowCenterWidthExplanation": "Algo1",
        "dBdt": 0.0
      },
      "slices": {}
    },
    "modality": "bold",
    "run_id": 2,
    "session_id": "2",
    "subject_id": "047EPKL011041",
    "task_id": "read",
    "time": {
      "samples": {
        "AcquisitionNumber": [
          1,
          2,
          3,
          4,
          5,
          6,
          7,
          8,
          9,
          10,
          11,
          12,
          13,
          14,
          15,
          16,
          17,
          18,
          19,
          20,
          21,
          22,
          23,
          24,
          25,
          26,
          27,
          28,
          29,
          30,
          31,
          32,
          33,
          34,
          35,
          36,
          37,
          38,
          39,
          40,
          41,
          42,
          43,
          44,
          45,
          46,
          47,
          48,
          49,
          50,
          51,
          52,
          53,
          54,
          55,
          56,
          57,
          58,
          59,
          60,
          61,
          62,
          63,
          64,
          65,
          66,
          67,
          68,
          69,
          70,
          71,
          72,
          73,
          74,
          75,
          76,
          77,
          78,
          79,
          80,
          81,
          82,
          83,
          84,
          85,
          86,
          87,
          88,
          89,
          90,
          91,
          92,
          93,
          94,
          95,
          96,
          97,
          98,
          99,
          100,
          101,
          102,
          103,
          104,
          105,
          106,
          107,
          108,
          109,
          110,
          111,
          112,
          113,
          114,
          115,
          116,
          117,
          118,
          119,
          120,
          121,
          122,
          123,
          124,
          125,
          126,
          127,
          128,
          129
        ],
        "AcquisitionTime": [
          "121401.882500",
          "121404.222500",
          "121406.562500",
          "121408.902500",
          "121411.242500",
          "121413.582500",
          "121415.922500",
          "121418.262500",
          "121420.602500",
          "121422.942500",
          "121425.282500",
          "121427.622500",
          "121429.962500",
          "121432.302500",
          "121434.642500",
          "121436.982500",
          "121439.322500",
          "121441.662500",
          "121444.002500",
          "121446.342500",
          "121448.682500",
          "121451.022500",
          "121453.362500",
          "121455.702500",
          "121458.042500",
          "121500.382500",
          "121502.722500",
          "121505.062500",
          "121507.402500",
          "121509.742500",
          "121512.082500",
          "121514.422500",
          "121516.762500",
          "121519.102500",
          "121521.442500",
          "121523.782500",
          "121526.122500",
          "121528.462500",
          "121530.802500",
          "121533.142500",
          "121535.482500",
          "121537.822500",
          "121540.162500",
          "121542.502500",
          "121544.842500",
          "121547.182500",
          "121549.522500",
          "121551.862500",
          "121554.202500",
          "121556.542500",
          "121558.882500",
          "121601.222500",
          "121603.562500",
          "121605.902500",
          "121608.242500",
          "121610.582500",
          "121612.922500",
          "121615.262500",
          "121617.602500",
          "121619.942500",
          "121622.282500",
          "121624.622500",
          "121626.962500",
          "121629.302500",
          "121631.642500",
          "121633.982500",
          "121636.322500",
          "121638.662500",
          "121641.002500",
          "121643.342500",
          "121645.682500",
          "121648.022500",
          "121650.362500",
          "121652.702500",
          "121655.042500",
          "121657.382500",
          "121659.722500",
          "121702.062500",
          "121704.402500",
          "121706.742500",
          "121709.082500",
          "121711.422500",
          "121713.762500",
          "121716.102500",
          "121718.442500",
          "121720.782500",
          "121723.122500",
          "121725.462500",
          "121727.802500",
          "121730.142500",
          "121732.482500",
          "121734.822500",
          "121737.162500",
          "121739.502500",
          "121741.842500",
          "121744.182500",
          "121746.522500",
          "121748.862500",
          "121751.202500",
          "121753.542500",
          "121755.882500",
          "121758.222500",
          "121800.562500",
          "121802.902500",
          "121805.242500",
          "121807.582500",
          "121809.922500",
          "121812.262500",
          "121814.602500",
          "121816.942500",
          "121819.282500",
          "121821.622500",
          "121823.962500",
          "121826.302500",
          "121828.642500",
          "121830.982500",
          "121833.322500",
          "121835.662500",
          "121838.002500",
          "121840.342500",
          "121842.682500",
          "121845.022500",
          "121847.362500",
          "121849.702500",
          "121852.042500",
          "121854.382500",
          "121856.722500",
          "121859.062500",
          "121901.402500"
        ],
        "ContentTime": [
          "121447.372000",
          "121447.376000",
          "121447.385000",
          "121447.388000",
          "121447.391000",
          "121447.394000",
          "121447.396000",
          "121447.399000",
          "121447.402000",
          "121447.405000",
          "121447.407000",
          "121447.410000",
          "121447.413000",
          "121447.420000",
          "121447.423000",
          "121447.433000",
          "121447.436000",
          "121447.438000",
          "121447.441000",
          "121447.444000",
          "121527.365000",
          "121527.374000",
          "121527.377000",
          "121527.380000",
          "121527.383000",
          "121527.386000",
          "121527.389000",
          "121527.392000",
          "121527.394000",
          "121527.397000",
          "121527.400000",
          "121527.402000",
          "121527.405000",
          "121527.408000",
          "121527.411000",
          "121527.414000",
          "121527.416000",
          "121627.366000",
          "121627.369000",
          "121627.372000",
          "121627.375000",
          "121627.378000",
          "121627.381000",
          "121627.383000",
          "121627.387000",
          "121627.390000",
          "121627.393000",
          "121627.396000",
          "121627.399000",
          "121627.401000",
          "121627.404000",
          "121627.407000",
          "121627.410000",
          "121627.412000",
          "121627.415000",
          "121627.418000",
          "121627.421000",
          "121627.424000",
          "121627.426000",
          "121627.429000",
          "121627.432000",
          "121627.435000",
          "121727.365000",
          "121727.377000",
          "121727.380000",
          "121727.389000",
          "121727.392000",
          "121727.395000",
          "121727.398000",
          "121727.401000",
          "121727.404000",
          "121727.407000",
          "121727.410000",
          "121727.412000",
          "121727.415000",
          "121727.419000",
          "121727.421000",
          "121727.424000",
          "121727.427000",
          "121727.430000",
          "121727.433000",
          "121727.435000",
          "121727.438000",
          "121727.441000",
          "121727.444000",
          "121727.446000",
          "121727.449000",
          "121727.453000",
          "121827.366000",
          "121827.374000",
          "121827.377000",
          "121827.380000",
          "121827.383000",
          "121827.386000",
          "121827.389000",
          "121827.392000",
          "121827.395000",
          "121827.398000",
          "121827.401000",
          "121827.404000",
          "121827.406000",
          "121827.409000",
          "121827.412000",
          "121827.415000",
          "121827.418000",
          "121827.421000",
          "121827.424000",
          "121827.426000",
          "121827.442000",
          "121827.445000",
          "121827.448000",
          "121827.450000",
          "121827.453000",
          "121827.456000",
          "121903.858000",
          "121903.873000",
          "121903.877000",
          "121903.880000",
          "121903.883000",
          "121903.886000",
          "121903.889000",
          "121903.892000",
          "121903.896000",
          "121903.901000",
          "121903.905000",
          "121903.910000",
          "121903.914000",
          "121903.918000",
          "121903.921000"
        ],
        "InstanceCreationTime": [
          "121447.372000",
          "121447.376000",
          "121447.385000",
          "121447.388000",
          "121447.391000",
          "121447.394000",
          "121447.396000",
          "121447.399000",
          "121447.402000",
          "121447.405000",
          "121447.407000",
          "121447.410000",
          "121447.413000",
          "121447.420000",
          "121447.423000",
          "121447.433000",
          "121447.436000",
          "121447.438000",
          "121447.441000",
          "121447.444000",
          "121527.365000",
          "121527.374000",
          "121527.377000",
          "121527.380000",
          "121527.383000",
          "121527.386000",
          "121527.389000",
          "121527.392000",
          "121527.394000",
          "121527.397000",
          "121527.400000",
          "121527.402000",
          "121527.405000",
          "121527.408000",
          "121527.411000",
          "121527.414000",
          "121527.416000",
          "121627.366000",
          "121627.369000",
          "121627.372000",
          "121627.375000",
          "121627.378000",
          "121627.381000",
          "121627.383000",
          "121627.387000",
          "121627.390000",
          "121627.393000",
          "121627.396000",
          "121627.399000",
          "121627.401000",
          "121627.404000",
          "121627.407000",
          "121627.410000",
          "121627.412000",
          "121627.415000",
          "121627.418000",
          "121627.421000",
          "121627.424000",
          "121627.426000",
          "121627.429000",
          "121627.432000",
          "121627.435000",
          "121727.365000",
          "121727.377000",
          "121727.380000",
          "121727.389000",
          "121727.392000",
          "121727.395000",
          "121727.398000",
          "121727.401000",
          "121727.404000",
          "121727.407000",
          "121727.410000",
          "121727.412000",
          "121727.415000",
          "121727.419000",
          "121727.421000",
          "121727.424000",
          "121727.427000",
          "121727.430000",
          "121727.433000",
          "121727.435000",
          "121727.438000",
          "121727.441000",
          "121727.444000",
          "121727.446000",
          "121727.449000",
          "121727.453000",
          "121827.366000",
          "121827.374000",
          "121827.377000",
          "121827.380000",
          "121827.383000",
          "121827.386000",
          "121827.389000",
          "121827.392000",
          "121827.395000",
          "121827.398000",
          "121827.401000",
          "121827.404000",
          "121827.406000",
          "121827.409000",
          "121827.412000",
          "121827.415000",
          "121827.418000",
          "121827.421000",
          "121827.424000",
          "121827.426000",
          "121827.442000",
          "121827.445000",
          "121827.448000",
          "121827.450000",
          "121827.453000",
          "121827.456000",
          "121903.858000",
          "121903.873000",
          "121903.877000",
          "121903.880000",
          "121903.883000",
          "121903.886000",
          "121903.889000",
          "121903.892000",
          "121903.896000",
          "121903.901000",
          "121903.905000",
          "121903.910000",
          "121903.914000",
          "121903.918000",
          "121903.921000"
        ],
        "InstanceNumber": [
          1,
          2,
          3,
          4,
          5,
          6,
          7,
          8,
          9,
          10,
          11,
          12,
          13,
          14,
          15,
          16,
          17,
          18,
          19,
          20,
          21,
          22,
          23,
          24,
          25,
          26,
          27,
          28,
          29,
          30,
          31,
          32,
          33,
          34,
          35,
          36,
          37,
          38,
          39,
          40,
          41,
          42,
          43,
          44,
          45,
          46,
          47,
          48,
          49,
          50,
          51,
          52,
          53,
          54,
          55,
          56,
          57,
          58,
          59,
          60,
          61,
          62,
          63,
          64,
          65,
          66,
          67,
          68,
          69,
          70,
          71,
          72,
          73,
          74,
          75,
          76,
          77,
          78,
          79,
          80,
          81,
          82,
          83,
          84,
          85,
          86,
          87,
          88,
          89,
          90,
          91,
          92,
          93,
          94,
          95,
          96,
          97,
          98,
          99,
          100,
          101,
          102,
          103,
          104,
          105,
          106,
          107,
          108,
          109,
          110,
          111,
          112,
          113,
          114,
          115,
          116,
          117,
          118,
          119,
          120,
          121,
          122,
          123,
          124,
          125,
          126,
          127,
          128,
          129
        ],
        "LargestImagePixelValue": [
          2225,
          1808,
          2379,
          2504,
          2152,
          1759,
          2283,
          2064,
          1850,
          2125,
          1950,
          1611,
          1684,
          2378,
          1682,
          1968,
          1828,
          2213,
          2180,
          1784,
          1698,
          2466,
          1723,
          2206,
          1979,
          2279,
          1665,
          2124,
          1960,
          1784,
          1664,
          2075,
          1978,
          1699,
          1763,
          2034,
          2526,
          1716,
          1618,
          2075,
          2204,
          1727,
          2316,
          1637,
          1805,
          2485,
          1603,
          1835,
          2237,
          1628,
          2194,
          1944,
          1661,
          1674,
          1988,
          1870,
          2180,
          2083,
          2457,
          2381,
          1734,
          1701,
          1752,
          1861,
          1647,
          1670,
          2024,
          1968,
          2144,
          2273,
          1780,
          1913,
          2536,
          1672,
          1682,
          2257,
          2276,
          1901,
          2163,
          1876,
          1642,
          2561,
          2335,
          1661,
          1974,
          2547,
          1738,
          2251,
          2068,
          1896,
          1630,
          1734,
          1632,
          1741,
          2195,
          1861,
          2164,
          2537,
          1799,
          1819,
          2347,
          1794,
          1716,
          2517,
          1801,
          1841,
          1658,
          2092,
          2132,
          1632,
          1920,
          1969,
          1821,
          2367,
          2496,
          1896,
          1967,
          2202,
          2531,
          1687,
          1627,
          1864,
          2095,
          1613,
          1666,
          1879,
          1854,
          1716,
          2419
        ],
        "WindowCenter": [
          791.0,
          789.0,
          789.0,
          789.0,
          788.0,
          787.0,
          789.0,
          788.0,
          788.0,
          789.0,
          792.0,
          795.0,
          793.0,
          797.0,
          792.0,
          794.0,
          794.0,
          795.0,
          791.0,
          792.0,
          792.0,
          794.0,
          793.0,
          794.0,
          792.0,
          793.0,
          791.0,
          795.0,
          793.0,
          795.0,
          794.0,
          795.0,
          794.0,
          795.0,
          795.0,
          795.0,
          795.0,
          792.0,
          794.0,
          797.0,
          796.0,
          791.0,
          794.0,
          793.0,
          794.0,
          797.0,
          791.0,
          795.0,
          795.0,
          791.0,
          792.0,
          792.0,
          790.0,
          793.0,
          796.0,
          794.0,
          794.0,
          791.0,
          792.0,
          791.0,
          794.0,
          792.0,
          795.0,
          797.0,
          797.0,
          797.0,
          798.0,
          796.0,
          798.0,
          797.0,
          796.0,
          796.0,
          799.0,
          791.0,
          794.0,
          795.0,
          796.0,
          796.0,
          796.0,
          795.0,
          794.0,
          798.0,
          796.0,
          792.0,
          795.0,
          797.0,
          793.0,
          800.0,
          798.0,
          796.0,
          796.0,
          798.0,
          797.0,
          800.0,
          800.0,
          798.0,
          801.0,
          800.0,
          796.0,
          798.0,
          797.0,
          796.0,
          796.0,
          799.0,
          794.0,
          795.0,
          795.0,
          799.0,
          798.0,
          800.0,
          799.0,
          797.0,
          798.0,
          801.0,
          800.0,
          797.0,
          798.0,
          797.0,
          796.0,
          796.0,
          797.0,
          800.0,
          798.0,
          797.0,
          798.0,
          799.0,
          798.0,
          799.0,
          800.0
        ],
        "WindowWidth": [
          1650.0,
          1645.0,
          1647.0,
          1646.0,
          1644.0,
          1638.0,
          1644.0,
          1646.0,
          1642.0,
          1645.0,
          1651.0,
          1661.0,
          1656.0,
          1668.0,
          1654.0,
          1659.0,
          1658.0,
          1663.0,
          1652.0,
          1655.0,
          1653.0,
          1660.0,
          1656.0,
          1661.0,
          1653.0,
          1655.0,
          1651.0,
          1660.0,
          1654.0,
          1665.0,
          1658.0,
          1662.0,
          1660.0,
          1661.0,
          1661.0,
          1661.0,
          1664.0,
          1652.0,
          1658.0,
          1667.0,
          1663.0,
          1651.0,
          1660.0,
          1655.0,
          1660.0,
          1667.0,
          1652.0,
          1663.0,
          1661.0,
          1651.0,
          1655.0,
          1656.0,
          1648.0,
          1657.0,
          1664.0,
          1660.0,
          1661.0,
          1652.0,
          1656.0,
          1652.0,
          1657.0,
          1652.0,
          1659.0,
          1666.0,
          1664.0,
          1666.0,
          1669.0,
          1662.0,
          1668.0,
          1668.0,
          1662.0,
          1664.0,
          1672.0,
          1651.0,
          1659.0,
          1663.0,
          1663.0,
          1662.0,
          1664.0,
          1662.0,
          1659.0,
          1670.0,
          1668.0,
          1654.0,
          1662.0,
          1667.0,
          1655.0,
          1674.0,
          1669.0,
          1664.0,
          1664.0,
          1669.0,
          1665.0,
          1673.0,
          1676.0,
          1667.0,
          1675.0,
          1675.0,
          1662.0,
          1670.0,
          1670.0,
          1662.0,
          1663.0,
          1672.0,
          1659.0,
          1661.0,
          1660.0,
          1670.0,
          1668.0,
          1673.0,
          1673.0,
          1665.0,
          1668.0,
          1678.0,
          1673.0,
          1667.0,
          1671.0,
          1665.0,
          1666.0,
          1661.0,
          1664.0,
          1675.0,
          1669.0,
          1664.0,
          1668.0,
          1670.0,
          1669.0,
          1671.0,
          1675.0
        ]
      },
      "slices": {}
    }
  },
  "dummy_trs": 0,
  "dvars_nstd": 37.84418650031248,
  "dvars_std": 1.2975004004687494,
  "dvars_vstd": 1.06359393890625,
  "efc": 0.5998282628223995,
  "fber": 1313.41943359375,
  "fd_mean": 0.5125578929864067,
  "fd_num": 108,
  "fd_perc": 83.72093023255815,
  "fwhm_avg": 1.794791280553018,
  "fwhm_x": 1.6461733333333333,
  "fwhm_y": 2.04724,
  "fwhm_z": 1.6909605083257206,
  "gcor": 0.0869767,
  "gsr_x": -0.014091653749346733,
  "gsr_y": 0.060256898403167725,
  "provenance": {
    "md5sum": "3f857b201ad9e7f8028269d39d8f9a40",
    "settings": {
      "fd_thres": 0.2,
      "testing": false
    },
    "software": "mriqc",
    "version": "22.0.1",
    "webapi_port": null,
    "webapi_url": "https://mriqc.nimh.nih.gov/api/v1"
  },
  "size_t": 129,
  "size_x": 64,
  "size_y": 64,
  "size_z": 34,
  "snr": 6.336986994663172,
  "spacing_tr": 2.3399999141693115,
  "spacing_x": 3.0,
  "spacing_y": 3.0,
  "spacing_z": 3.3000001907348633,
  "summary_bg_k": 33.172052507627726,
  "summary_bg_mad": 9.182938752419796,
  "summary_bg_mean": 45.02366638183594,
  "summary_bg_median": 23.255813598632812,
  "summary_bg_n": 68981.0,
  "summary_bg_p05": 14.131782531738281,
  "summary_bg_p95": 143.00775146484375,
  "summary_bg_stdv": 75.72787475585938,
  "summary_fg_k": 1.616084788571559,
  "summary_fg_mad": 135.68104242578158,
  "summary_fg_mean": 868.904541015625,
  "summary_fg_median": 863.4844970703125,
  "summary_fg_n": 37170.0,
  "summary_fg_p05": 664.7752075195312,
  "summary_fg_p95": 1081.4495849609375,
  "summary_fg_stdv": 136.25921630859375,
  "tsnr": 49.70302587375045
}