{
  "aor": 0.008890406504065043,
  "aqi": 0.012587655772357724,
  "bids_meta": {
    "AcquisitionMatrixPE": 64,
    "AcquisitionNumber": 1,
    "AcquisitionTime": "14:00:56.207500",
    "BandwidthPerPixelPhaseEncode": 24.038,
    "BaseResolution": 64,
    "BodyPartExamined": "HEAD",
    "ConsistencyInfo": "N4_VD13A_LATEST_20120616",
    "ConversionSoftware": "dcm2niix",
    "ConversionSoftwareVersion": "v1.0.20181125  GCC6.3.0",
    "DerivedVendorReportedEchoSpacing": 0.000650012,
    "DeviceSerialNumber": "45250",
    "DwellTime": 4.6e-06,
    "EchoTime": 0.033,
    "EchoTrainLength": 64,
    "EffectiveEchoSpacing": 0.000650012,
    "FlipAngle": 90,
    "ImageOrientationPatientDICOM": [
      0.999641,
      0.00154002,
      -0.0267603,
      -0.00697894,
      0.978869,
      -0.204369
    ],
    "ImageType": [
      "ORIGINAL",
      "PRIMARY",
      "M",
      "ND",
      "NORM",
      "MOSAIC"
    ],
    "ImagingFrequency": 123.214,
    "InPlanePhaseEncodingDirectionDICOM": "COL",
    "InstitutionAddress": "Kopernikusstr._26_Graz_Graz_AT_8010",
    "InstitutionName": "KFU",
    "InstitutionalDepartmentName": "Department",
    "MRAcquisitionType": "2D",
    "MagneticFieldStrength": 3,
    "Manufacturer": "Siemens",
    "ManufacturersModelName": "Skyra",
    "Modality": "MR",
    "PartialFourier": 1,
    "PatientPosition": "HFS",
    "PercentPhaseFOV": 100,
    "PhaseEncodingDirection": "j-",
    "PhaseEncodingSteps": 64,
    "PhaseResolution": 1,
    "PixelBandwidth": 1700,
    "ProcedureStepDescription": "KFU_Entw-Psy",
    "ProtocolName": "fMRI_3",
    "PulseSequenceDetails": "%SiemensSeq%_ep2d_pace",
    "ReceiveCoilActiveElements": "HE1-4",
    "ReceiveCoilName": "HeadNeck_20",
    "ReconMatrixPE": 64,
    "RepetitionTime": 2.34,
    "SAR": 0.190837,
    "ScanOptions": "FS",
    "ScanningSequence": "EP",
    "SequenceName": "_epfid2d1_64",
    "SequenceVariant": "SK",
    "SeriesDescription": "fMRI_3",
    "SeriesNumber": 8,
    "ShimSetting": [
      -1586,
      -3700,
      -4345,
      283,
      487,
      -20,
      480,
      -200
    ],
    "SliceThickness": 3,
    "SliceTiming": [
      2.2525,
      2.185,
      2.115,
      2.0475,
      1.98,
      1.9125,
      1.8425,
      1.775,
      1.7075,
      1.6375,
      1.57,
      1.5025,
      1.4325,
      1.365,
      1.2975,
      1.23,
      1.16,
      1.0925,
      1.025,
      0.955,
      0.8875,
      0.82,
      0.7525,
      0.6825,
      0.615,
      0.5475,
      0.4775,
      0.41,
      0.3425,
      0.275,
      0.205,
      0.1375,
      0.07,
      0
    ],
    "SoftwareVersions": "syngo_MR_D13",
    "SpacingBetweenSlices": 3.3,
    "StationName": "FBMTMR1",
    "TaskName": "read",
    "TotalReadoutTime": 0.0409508,
    "TxRefAmp": 366.19,
    "dataset": "ds003126",
    "dcmmeta_affine": [
      [
        -2.998922109603882,
        -0.02093682996928692,
        -0.085404172539711,
        96.39998626708984
      ],
      [
        -0.004620055202394724,
        2.9366073608398438,
        -0.6747907996177673,
        -103.6840591430664
      ],
      [
        -0.08028075098991394,
        0.6131062507629395,
        3.229142904281616,
        -19.22987937927246
      ],
      [
        0.0,
        0.0,
        0.0,
        1.0
      ]
    ],
    "dcmmeta_reorient_transform": [
      [
        0.0,
        -1.0,
        0.0,
        63.0
      ],
      [
        1.0,
        0.0,
        0.0,
        0.0
      ],
      [
        0.0,
        0.0,
        1.0,
        0.0
      ],
      [
        0.0,
        0.0,
        0.0,
        1.0
      ]
    ],
    "dcmmeta_shape": [
      64,
      64,
      34,
      123
    ],
    "dcmmeta_slice_dim": 2,
    "dcmmeta_version": 0.6,
    "global": {
      "const": {
        "AcquisitionMatrix": [
          64,
          0,
          0,
          64
        ],
        "AngioFlag": "N",
        "BitsAllocated": 16,
        "BitsStored": 12,
        "BodyPartExamined": "HEAD",
        "Columns": 384,
        "EchoNumbers": 1,
        "EchoTime": 33.0,
        "EchoTrainLength": 64,
        "FlipAngle": 90.0,
        "HighBit": 11,
        "ImageOrientationPatient": [
          0.9996406940905,
          0.00154001846625,
          -0.0267602515196,
          -0.0069789430547,
          0.97886909790122,
          -0.2043687440092
        ],
        "ImagePositionPatient": [
          -571.55860877333,
          -551.91857384871,
          130.33773131044
        ],
        "ImageType": [
          "ORIGINAL",
          "PRIMARY",
          "M",
          "ND",
          "NORM",
          "MOSAIC"
        ],
        "ImagedNucleus": "1H",
        "ImagingFrequency": 123.214093,
        "InPlanePhaseEncodingDirection": "COL",
        "MRAcquisitionType": "2D",
        "MagneticFieldStrength": 3.0,
        "Manufacturer": "SIEMENS",
        "ManufacturerModelName": "Skyra",
        "Modality": "MR",
        "NumberOfAverages": 1.0,
        "NumberOfPhaseEncodingSteps": 64,
        "PercentPhaseFieldOfView": 100.0,
        "PercentSampling": 100.0,
        "PerformedProcedureStepStartTime": "133923.549000",
        "PhotometricInterpretation": "MONOCHROME2",
        "PixelBandwidth": 1700.0,
        "PixelRepresentation": 0,
        "PixelSpacing": [
          3.0,
          3.0
        ],
        "ProtocolName": "fMRI_3",
        "RepetitionTime": 2340.0,
        "Rows": 384,
        "SAR": 0.19083698650197,
        "SamplesPerPixel": 1,
        "ScanOptions": "FS",
        "ScanningSequence": "EP",
        "SequenceName": "*epfid2d1_64",
        "SequenceVariant": "SK",
        "SeriesDescription": "fMRI_3",
        "SeriesNumber": 8,
        "SeriesTime": "140159.715000",
        "SliceLocation": -0.1102827491791,
        "SliceThickness": 3.0,
        "SmallestImagePixelValue": 0,
        "SoftwareVersions": "syngo MR D13",
        "SpacingBetweenSlices": 3.2999999564824,
        "SpecificCharacterSet": "ISO_IR 100",
        "StudyID": "1",
        "StudyTime": "133923.504000",
        "TransmitCoilName": "Body",
        "VariableFlipAngleFlag": "N",
        "WindowCenterWidthExplanation": "Algo1",
        "dBdt": 0.0
      },
      "slices": {}
    },
    "modality": "bold",
    "run_id": 3,
    "session_id": "2",
    "subject_id": "047EPKL011051",
    "task_id": "read",
    "time": {
      "samples": {
        "AcquisitionNumber": [
          1,
          2,
          3,
          4,
          5,
          6,
          7,
          8,
          9,
          10,
          11,
          12,
          13,
          14,
          15,
          16,
          17,
          18,
          19,
          20,
          21,
          22,
          23,
          24,
          25,
          26,
          27,
          28,
          29,
          30,
          31,
          32,
          33,
          34,
          35,
          36,
          37,
          38,
          39,
          40,
          41,
          42,
          43,
          44,
          45,
          46,
          47,
          48,
          49,
          50,
          51,
          52,
          53,
          54,
          55,
          56,
          57,
          58,
          59,
          60,
          61,
          62,
          63,
          64,
          65,
          66,
          67,
          68,
          69,
          70,
          71,
          72,
          73,
          74,
          75,
          76,
          77,
          78,
          79,
          80,
          81,
          82,
          83,
          84,
          85,
          86,
          87,
          88,
          89,
          90,
          91,
          92,
          93,
          94,
          95,
          96,
          97,
          98,
          99,
          100,
          101,
          102,
          103,
          104,
          105,
          106,
          107,
          108,
          109,
          110,
          111,
          112,
          113,
          114,
          115,
          116,
          117,
          118,
          119,
          120,
          121,
          122,
          123
        ],
        "AcquisitionTime": [
          "140056.207500",
          "140058.547500",
          "140100.887500",
          "140103.227500",
          "140105.567500",
          "140107.907500",
          "140110.247500",
          "140112.587500",
          "140114.927500",
          "140117.267500",
          "140119.607500",
          "140121.947500",
          "140124.287500",
          "140126.627500",
          "140128.967500",
          "140131.307500",
          "140133.647500",
          "140135.987500",
          "140138.327500",
          "140140.667500",
          "140143.007500",
          "140145.347500",
          "140147.687500",
          "140150.027500",
          "140152.367500",
          "140154.707500",
          "140157.047500",
          "140159.387500",
          "140201.727500",
          "140204.067500",
          "140206.407500",
          "140208.747500",
          "140211.087500",
          "140213.427500",
          "140215.767500",
          "140218.107500",
          "140220.447500",
          "140222.787500",
          "140225.127500",
          "140227.467500",
          "140229.807500",
          "140232.147500",
          "140234.487500",
          "140236.827500",
          "140239.167500",
          "140241.507500",
          "140243.847500",
          "140246.187500",
          "140248.527500",
          "140250.867500",
          "140253.207500",
          "140255.547500",
          "140257.887500",
          "140300.227500",
          "140302.567500",
          "140304.907500",
          "140307.247500",
          "140309.587500",
          "140311.927500",
          "140314.267500",
          "140316.607500",
          "140318.947500",
          "140321.287500",
          "140323.627500",
          "140325.967500",
          "140328.307500",
          "140330.647500",
          "140332.987500",
          "140335.327500",
          "140337.667500",
          "140340.007500",
          "140342.347500",
          "140344.687500",
          "140347.027500",
          "140349.367500",
          "140351.707500",
          "140354.047500",
          "140356.387500",
          "140358.727500",
          "140401.067500",
          "140403.407500",
          "140405.747500",
          "140408.087500",
          "140410.427500",
          "140412.767500",
          "140415.107500",
          "140417.447500",
          "140419.787500",
          "140422.127500",
          "140424.467500",
          "140426.807500",
          "140429.147500",
          "140431.487500",
          "140433.827500",
          "140436.167500",
          "140438.507500",
          "140440.847500",
          "140443.187500",
          "140445.527500",
          "140447.867500",
          "140450.207500",
          "140452.547500",
          "140454.887500",
          "140457.227500",
          "140459.567500",
          "140501.907500",
          "140504.247500",
          "140506.587500",
          "140508.927500",
          "140511.267500",
          "140513.607500",
          "140515.947500",
          "140518.287500",
          "140520.627500",
          "140522.967500",
          "140525.307500",
          "140527.647500",
          "140529.987500",
          "140532.327500",
          "140534.667500",
          "140537.007500",
          "140539.347500",
          "140541.687500"
        ],
        "ContentTime": [
          "140159.720000",
          "140159.724000",
          "140159.727000",
          "140159.729000",
          "140159.732000",
          "140159.735000",
          "140159.737000",
          "140159.740000",
          "140159.743000",
          "140159.745000",
          "140159.748000",
          "140159.750000",
          "140159.753000",
          "140159.756000",
          "140159.758000",
          "140159.761000",
          "140159.763000",
          "140159.766000",
          "140159.769000",
          "140159.771000",
          "140159.774000",
          "140159.777000",
          "140159.779000",
          "140159.782000",
          "140159.785000",
          "140159.787000",
          "140159.790000",
          "140259.714000",
          "140259.718000",
          "140259.721000",
          "140259.723000",
          "140259.726000",
          "140259.729000",
          "140259.731000",
          "140259.734000",
          "140259.736000",
          "140259.739000",
          "140259.741000",
          "140259.744000",
          "140259.747000",
          "140259.749000",
          "140259.752000",
          "140259.755000",
          "140259.757000",
          "140259.760000",
          "140259.763000",
          "140259.765000",
          "140259.768000",
          "140259.771000",
          "140259.774000",
          "140259.777000",
          "140259.780000",
          "140259.782000",
          "140359.714000",
          "140359.717000",
          "140359.720000",
          "140359.723000",
          "140359.725000",
          "140359.728000",
          "140359.730000",
          "140359.733000",
          "140359.736000",
          "140359.738000",
          "140359.741000",
          "140359.743000",
          "140359.746000",
          "140359.749000",
          "140359.751000",
          "140359.754000",
          "140359.756000",
          "140359.759000",
          "140359.762000",
          "140359.764000",
          "140359.767000",
          "140359.769000",
          "140359.772000",
          "140359.775000",
          "140359.777000",
          "140459.714000",
          "140459.718000",
          "140459.720000",
          "140459.723000",
          "140459.725000",
          "140459.728000",
          "140459.731000",
          "140459.733000",
          "140459.736000",
          "140459.745000",
          "140459.748000",
          "140459.751000",
          "140459.753000",
          "140459.756000",
          "140459.759000",
          "140459.762000",
          "140459.764000",
          "140459.767000",
          "140459.770000",
          "140459.773000",
          "140459.776000",
          "140459.779000",
          "140459.782000",
          "140459.784000",
          "140459.787000",
          "140459.790000",
          "140544.631000",
          "140544.634000",
          "140544.637000",
          "140544.640000",
          "140544.642000",
          "140544.645000",
          "140544.649000",
          "140544.653000",
          "140544.656000",
          "140544.660000",
          "140544.663000",
          "140544.666000",
          "140544.668000",
          "140544.671000",
          "140544.674000",
          "140544.677000",
          "140544.680000",
          "140544.683000",
          "140544.686000"
        ],
        "InstanceCreationTime": [
          "140159.720000",
          "140159.724000",
          "140159.727000",
          "140159.729000",
          "140159.732000",
          "140159.735000",
          "140159.737000",
          "140159.740000",
          "140159.743000",
          "140159.745000",
          "140159.748000",
          "140159.750000",
          "140159.753000",
          "140159.756000",
          "140159.758000",
          "140159.761000",
          "140159.763000",
          "140159.766000",
          "140159.769000",
          "140159.771000",
          "140159.774000",
          "140159.777000",
          "140159.779000",
          "140159.782000",
          "140159.785000",
          "140159.787000",
          "140159.790000",
          "140259.714000",
          "140259.718000",
          "140259.721000",
          "140259.723000",
          "140259.726000",
          "140259.729000",
          "140259.731000",
          "140259.734000",
          "140259.736000",
          "140259.739000",
          "140259.741000",
          "140259.744000",
          "140259.747000",
          "140259.749000",
          "140259.752000",
          "140259.755000",
          "140259.757000",
          "140259.760000",
          "140259.763000",
          "140259.765000",
          "140259.768000",
          "140259.771000",
          "140259.774000",
          "140259.777000",
          "140259.780000",
          "140259.782000",
          "140359.714000",
          "140359.717000",
          "140359.720000",
          "140359.723000",
          "140359.725000",
          "140359.728000",
          "140359.730000",
          "140359.733000",
          "140359.736000",
          "140359.738000",
          "140359.741000",
          "140359.743000",
          "140359.746000",
          "140359.749000",
          "140359.751000",
          "140359.754000",
          "140359.756000",
          "140359.759000",
          "140359.762000",
          "140359.764000",
          "140359.767000",
          "140359.769000",
          "140359.772000",
          "140359.775000",
          "140359.777000",
          "140459.714000",
          "140459.718000",
          "140459.720000",
          "140459.723000",
          "140459.725000",
          "140459.728000",
          "140459.731000",
          "140459.733000",
          "140459.736000",
          "140459.745000",
          "140459.748000",
          "140459.751000",
          "140459.753000",
          "140459.756000",
          "140459.759000",
          "140459.762000",
          "140459.764000",
          "140459.767000",
          "140459.770000",
          "140459.773000",
          "140459.776000",
          "140459.779000",
          "140459.782000",
          "140459.784000",
          "140459.787000",
          "140459.790000",
          "140544.631000",
          "140544.634000",
          "140544.637000",
          "140544.640000",
          "140544.642000",
          "140544.645000",
          "140544.649000",
          "140544.653000",
          "140544.656000",
          "140544.660000",
          "140544.663000",
          "140544.666000",
          "140544.668000",
          "140544.671000",
          "140544.674000",
          "140544.677000",
          "140544.680000",
          "140544.683000",
          "140544.686000"
        ],
        "InstanceNumber": [
          1,
          2,
          3,
          4,
          5,
          6,
          7,
          8,
          9,
          10,
          11,
          12,
          13,
          14,
          15,
          16,
          17,
          18,
          19,
          20,
          21,
          22,
          23,
          24,
          25,
          26,
          27,
          28,
          29,
          30,
          31,
          32,
          33,
          34,
          35,
          36,
          37,
          38,
          39,
          40,
          41,
          42,
          43,
          44,
          45,
          46,
          47,
          48,
          49,
          50,
          51,
          52,
          53,
          54,
          55,
          56,
          57,
          58,
          59,
          60,
          61,
          62,
          63,
          64,
          65,
          66,
          67,
          68,
          69,
          70,
          71,
          72,
          73,
          74,
          75,
          76,
          77,
          78,
          79,
          80,
          81,
          82,
          83,
          84,
          85,
          86,
          87,
          88,
          89,
          90,
          91,
          92,
          93,
          94,
          95,
          96,
          97,
          98,
          99,
          100,
          101,
          102,
          103,
          104,
          105,
          106,
          107,
          108,
          109,
          110,
          111,
          112,
          113,
          114,
          115,
          116,
          117,
          118,
          119,
          120,
          121,
          122,
          123
        ],
        "LargestImagePixelValue": [
          1860,
          1814,
          1837,
          2005,
          1742,
          1806,
          1805,
          1800,
          1786,
          2294,
          1761,
          1848,
          1724,
          1833,
          2089,
          1777,
          1790,
          1760,
          2668,
          2232,
          1764,
          1888,
          1772,
          1870,
          1835,
          1800,
          1752,
          2335,
          1687,
          1829,
          1796,
          1758,
          1990,
          2052,
          1794,
          2059,
          1782,
          2205,
          1755,
          1750,
          1783,
          1857,
          1802,
          1851,
          1793,
          1887,
          2388,
          1900,
          1832,
          2033,
          2044,
          1985,
          1944,
          1816,
          1903,
          2049,
          1963,
          1788,
          1744,
          1933,
          2194,
          2019,
          1862,
          1810,
          1954,
          1792,
          1802,
          1815,
          1818,
          2059,
          1970,
          2135,
          2066,
          1984,
          1846,
          1837,
          2076,
          2109,
          1874,
          1954,
          1811,
          1723,
          1884,
          2327,
          1782,
          1784,
          1940,
          1803,
          1798,
          2621,
          1787,
          2093,
          2238,
          1746,
          1773,
          1950,
          1847,
          1833,
          2017,
          1961,
          1801,
          1807,
          2071,
          2611,
          1780,
          1777,
          1792,
          1806,
          1765,
          2218,
          1802,
          1872,
          1845,
          1917,
          1762,
          1829,
          1773,
          2067,
          2148,
          1796,
          1791,
          1792,
          2227
        ],
        "WindowCenter": [
          807.0,
          806.0,
          806.0,
          804.0,
          806.0,
          807.0,
          806.0,
          806.0,
          809.0,
          809.0,
          804.0,
          806.0,
          807.0,
          810.0,
          808.0,
          806.0,
          809.0,
          808.0,
          810.0,
          806.0,
          804.0,
          807.0,
          807.0,
          806.0,
          807.0,
          808.0,
          808.0,
          806.0,
          807.0,
          806.0,
          805.0,
          806.0,
          809.0,
          806.0,
          805.0,
          805.0,
          804.0,
          804.0,
          802.0,
          805.0,
          808.0,
          810.0,
          804.0,
          807.0,
          805.0,
          809.0,
          811.0,
          809.0,
          809.0,
          807.0,
          807.0,
          808.0,
          807.0,
          809.0,
          809.0,
          811.0,
          809.0,
          809.0,
          810.0,
          811.0,
          807.0,
          805.0,
          809.0,
          809.0,
          809.0,
          808.0,
          808.0,
          808.0,
          809.0,
          810.0,
          812.0,
          810.0,
          809.0,
          809.0,
          810.0,
          811.0,
          816.0,
          809.0,
          805.0,
          808.0,
          807.0,
          806.0,
          807.0,
          815.0,
          810.0,
          809.0,
          811.0,
          810.0,
          811.0,
          811.0,
          812.0,
          812.0,
          810.0,
          807.0,
          810.0,
          811.0,
          811.0,
          811.0,
          812.0,
          811.0,
          812.0,
          813.0,
          815.0,
          810.0,
          809.0,
          812.0,
          812.0,
          810.0,
          809.0,
          812.0,
          809.0,
          811.0,
          812.0,
          816.0,
          812.0,
          814.0,
          811.0,
          813.0,
          812.0,
          810.0,
          813.0,
          813.0,
          814.0
        ],
        "WindowWidth": [
          1677.0,
          1673.0,
          1673.0,
          1670.0,
          1673.0,
          1677.0,
          1673.0,
          1674.0,
          1682.0,
          1681.0,
          1667.0,
          1678.0,
          1676.0,
          1685.0,
          1679.0,
          1674.0,
          1680.0,
          1679.0,
          1683.0,
          1673.0,
          1668.0,
          1674.0,
          1675.0,
          1674.0,
          1678.0,
          1677.0,
          1678.0,
          1674.0,
          1679.0,
          1675.0,
          1671.0,
          1673.0,
          1683.0,
          1675.0,
          1671.0,
          1671.0,
          1670.0,
          1668.0,
          1664.0,
          1672.0,
          1678.0,
          1683.0,
          1669.0,
          1676.0,
          1672.0,
          1682.0,
          1686.0,
          1679.0,
          1679.0,
          1675.0,
          1677.0,
          1678.0,
          1678.0,
          1681.0,
          1680.0,
          1687.0,
          1681.0,
          1680.0,
          1685.0,
          1685.0,
          1677.0,
          1673.0,
          1681.0,
          1680.0,
          1680.0,
          1680.0,
          1677.0,
          1679.0,
          1680.0,
          1684.0,
          1688.0,
          1683.0,
          1682.0,
          1681.0,
          1683.0,
          1684.0,
          1694.0,
          1679.0,
          1673.0,
          1681.0,
          1678.0,
          1674.0,
          1677.0,
          1698.0,
          1683.0,
          1682.0,
          1686.0,
          1683.0,
          1687.0,
          1687.0,
          1687.0,
          1688.0,
          1686.0,
          1676.0,
          1684.0,
          1686.0,
          1686.0,
          1687.0,
          1688.0,
          1688.0,
          1687.0,
          1691.0,
          1695.0,
          1682.0,
          1681.0,
          1687.0,
          1687.0,
          1684.0,
          1681.0,
          1690.0,
          1680.0,
          1687.0,
          1687.0,
          1698.0,
          1687.0,
          1692.0,
          1685.0,
          1691.0,
          1688.0,
          1682.0,
          1691.0,
          1691.0,
          1692.0
        ]
      },
      "slices": {}
    }
  },
  "dummy_trs": 0,
  "dvars_nstd": 36.21951978737706,
  "dvars_std": 1.38143248204918,
  "dvars_vstd": 1.1032545623770493,
  "efc": 0.6070078717743299,
  "fber": 1349.2730712890625,
  "fd_mean": 0.41815292639471646,
  "fd_num": 86,
  "fd_perc": 69.91869918699187,
  "fwhm_avg": 1.6129291993539547,
  "fwhm_x": 1.5424733333333334,
  "fwhm_y": 1.7527233333333332,
  "fwhm_z": 1.5435909313951972,
  "gcor": 0.0713627,
  "gsr_x": 0.0004003019421361387,
  "gsr_y": 0.03198058530688286,
  "provenance": {
    "md5sum": "ae56c9c34dac9c7d051d85cd82be3575",
    "settings": {
      "fd_thres": 0.2,
      "testing": false
    },
    "software": "mriqc",
    "version": "22.0.1",
    "webapi_port": null,
    "webapi_url": "https://mriqc.nimh.nih.gov/api/v1"
  },
  "size_t": 123,
  "size_x": 64,
  "size_y": 64,
  "size_z": 34,
  "snr": 6.426422012929085,
  "spacing_tr": 2.3399999141693115,
  "spacing_x": 3.0,
  "spacing_y": 3.0,
  "spacing_z": 3.299999952316284,
  "summary_bg_k": 59.08254889009389,
  "summary_bg_mad": 10.812148886264513,
  "summary_bg_mean": 33.37919998168945,
  "summary_bg_median": 23.04878044128418,
  "summary_bg_n": 65965.0,
  "summary_bg_p05": 11.967479705810547,
  "summary_bg_p95": 81.78861236572266,
  "summary_bg_stdv": 39.837646484375,
  "summary_fg_k": 2.0617263325955975,
  "summary_fg_mad": 130.12544668585645,
  "summary_fg_mean": 870.4741821289062,
  "summary_fg_median": 865.3088989257812,
  "summary_fg_n": 40702.0,
  "summary_fg_p05": 678.7015960693359,
  "summary_fg_p95": 1086.2763671875,
  "summary_fg_stdv": 134.64697265625,
  "tsnr": 54.335522565292194
}