{
  "aor": 0.006339603174603177,
  "aqi": 0.027491970873015876,
  "bids_meta": {
    "AcquisitionMatrixPE": 64,
    "AcquisitionNumber": 1,
    "AcquisitionTime": "08:40:49.352500",
    "BandwidthPerPixelPhaseEncode": 24.038,
    "BaseResolution": 64,
    "BodyPartExamined": "HEAD",
    "ConsistencyInfo": "N4_VD13A_LATEST_20120616",
    "ConversionSoftware": "dcm2niix",
    "ConversionSoftwareVersion": "v1.0.20181125  GCC6.3.0",
    "DerivedVendorReportedEchoSpacing": 0.000650012,
    "DeviceSerialNumber": "45250",
    "DwellTime": 4.6e-06,
    "EchoTime": 0.033,
    "EchoTrainLength": 64,
    "EffectiveEchoSpacing": 0.000650012,
    "FlipAngle": 90,
    "ImageOrientationPatientDICOM": [
      0.999828,
      -0.0158205,
      -0.00968683,
      0.0139611,
      0.985578,
      -0.168642
    ],
    "ImageType": [
      "ORIGINAL",
      "PRIMARY",
      "M",
      "ND",
      "NORM",
      "MOSAIC"
    ],
    "ImagingFrequency": 123.22,
    "InPlanePhaseEncodingDirectionDICOM": "COL",
    "InstitutionAddress": "Kopernikusstr._26_Graz_Graz_AT_8010",
    "InstitutionName": "KFU",
    "InstitutionalDepartmentName": "Department",
    "MRAcquisitionType": "2D",
    "MagneticFieldStrength": 3,
    "Manufacturer": "Siemens",
    "ManufacturersModelName": "Skyra",
    "Modality": "MR",
    "PartialFourier": 1,
    "PatientPosition": "HFS",
    "PercentPhaseFOV": 100,
    "PhaseEncodingDirection": "j-",
    "PhaseEncodingSteps": 64,
    "PhaseResolution": 1,
    "PixelBandwidth": 1700,
    "ProcedureStepDescription": "KFU_Entw-Psy",
    "ProtocolName": "fMRI_1",
    "PulseSequenceDetails": "%SiemensSeq%_ep2d_pace",
    "ReceiveCoilActiveElements": "HE1-4",
    "ReceiveCoilName": "HeadNeck_20",
    "ReconMatrixPE": 64,
    "RepetitionTime": 2.34,
    "SAR": 0.16928,
    "ScanOptions": "FS",
    "ScanningSequence": "EP",
    "SequenceName": "_epfid2d1_64",
    "SequenceVariant": "SK",
    "SeriesDescription": "fMRI_1",
    "SeriesNumber": 2,
    "ShimSetting": [
      -1679,
      -3752,
      -4373,
      370,
      352,
      -273,
      412,
      -345
    ],
    "SliceThickness": 3,
    "SliceTiming": [
      2.2525,
      2.1825,
      2.115,
      2.0475,
      1.98,
      1.91,
      1.8425,
      1.775,
      1.705,
      1.6375,
      1.57,
      1.5025,
      1.4325,
      1.365,
      1.2975,
      1.2275,
      1.16,
      1.0925,
      1.0225,
      0.955,
      0.8875,
      0.82,
      0.75,
      0.6825,
      0.615,
      0.545,
      0.4775,
      0.41,
      0.3425,
      0.2725,
      0.205,
      0.1375,
      0.0675,
      0
    ],
    "SoftwareVersions": "syngo_MR_D13",
    "SpacingBetweenSlices": 3.3,
    "StationName": "FBMTMR1",
    "TaskName": "read",
    "TotalReadoutTime": 0.0409508,
    "TxRefAmp": 332.05,
    "dataset": "ds003126",
    "dcmmeta_affine": [
      [
        -2.999483823776245,
        0.04188339412212372,
        -0.04030993580818176,
        97.4309310913086
      ],
      [
        0.047461483627557755,
        2.956735372543335,
        -0.5559777021408081,
        -110.5654067993164
      ],
      [
        -0.029060479253530502,
        0.5059270262718201,
        3.252578020095825,
        -23.10698127746582
      ],
      [
        0.0,
        0.0,
        0.0,
        1.0
      ]
    ],
    "dcmmeta_reorient_transform": [
      [
        0.0,
        -1.0,
        0.0,
        63.0
      ],
      [
        1.0,
        0.0,
        0.0,
        0.0
      ],
      [
        0.0,
        0.0,
        1.0,
        0.0
      ],
      [
        0.0,
        0.0,
        0.0,
        1.0
      ]
    ],
    "dcmmeta_shape": [
      64,
      64,
      34,
      126
    ],
    "dcmmeta_slice_dim": 2,
    "dcmmeta_version": 0.6,
    "global": {
      "const": {
        "AcquisitionMatrix": [
          64,
          0,
          0,
          64
        ],
        "AngioFlag": "N",
        "BitsAllocated": 16,
        "BitsStored": 12,
        "BodyPartExamined": "HEAD",
        "Columns": 384,
        "EchoNumbers": 1,
        "EchoTime": 33.0,
        "EchoTrainLength": 64,
        "FlipAngle": 90.0,
        "HighBit": 11,
        "ImageOrientationPatient": [
          0.99982792387133,
          -0.0158204942163,
          -0.0096868266167,
          0.01396113110137,
          0.98557843222416,
          -0.1686423456696
        ],
        "ImagePositionPatient": [
          -586.68833406798,
          -541.19272820684,
          94.36442521259
        ],
        "ImageType": [
          "ORIGINAL",
          "PRIMARY",
          "M",
          "ND",
          "NORM",
          "MOSAIC"
        ],
        "ImagedNucleus": "1H",
        "ImagingFrequency": 123.220091,
        "InPlanePhaseEncodingDirection": "COL",
        "MRAcquisitionType": "2D",
        "MagneticFieldStrength": 3.0,
        "Manufacturer": "SIEMENS",
        "ManufacturerModelName": "Skyra",
        "Modality": "MR",
        "NumberOfAverages": 1.0,
        "NumberOfPhaseEncodingSteps": 64,
        "PercentPhaseFieldOfView": 100.0,
        "PercentSampling": 100.0,
        "PerformedProcedureStepStartTime": "082951.914000",
        "PhotometricInterpretation": "MONOCHROME2",
        "PixelBandwidth": 1700.0,
        "PixelRepresentation": 0,
        "PixelSpacing": [
          3.0,
          3.0
        ],
        "ProtocolName": "fMRI_1",
        "RepetitionTime": 2340.0,
        "Rows": 384,
        "SAR": 0.16928042860285,
        "SamplesPerPixel": 1,
        "ScanOptions": "FS",
        "ScanningSequence": "EP",
        "SequenceName": "*epfid2d1_64",
        "SequenceVariant": "SK",
        "SeriesDescription": "fMRI_1",
        "SeriesNumber": 2,
        "SeriesTime": "084137.018000",
        "SliceLocation": -5.3372104977744,
        "SliceThickness": 3.0,
        "SmallestImagePixelValue": 0,
        "SoftwareVersions": "syngo MR D13",
        "SpacingBetweenSlices": 3.2999999412805,
        "SpecificCharacterSet": "ISO_IR 100",
        "StudyID": "1",
        "StudyTime": "082951.869000",
        "TransmitCoilName": "Body",
        "VariableFlipAngleFlag": "N",
        "WindowCenterWidthExplanation": "Algo1",
        "dBdt": 0.0
      },
      "slices": {}
    },
    "modality": "bold",
    "run_id": 1,
    "session_id": "2",
    "subject_id": "047EPKL011059",
    "task_id": "read",
    "time": {
      "samples": {
        "AcquisitionNumber": [
          1,
          2,
          3,
          4,
          5,
          6,
          7,
          8,
          9,
          10,
          11,
          12,
          13,
          14,
          15,
          16,
          17,
          18,
          19,
          20,
          21,
          22,
          23,
          24,
          25,
          26,
          27,
          28,
          29,
          30,
          31,
          32,
          33,
          34,
          35,
          36,
          37,
          38,
          39,
          40,
          41,
          42,
          43,
          44,
          45,
          46,
          47,
          48,
          49,
          50,
          51,
          52,
          53,
          54,
          55,
          56,
          57,
          58,
          59,
          60,
          61,
          62,
          63,
          64,
          65,
          66,
          67,
          68,
          69,
          70,
          71,
          72,
          73,
          74,
          75,
          76,
          77,
          78,
          79,
          80,
          81,
          82,
          83,
          84,
          85,
          86,
          87,
          88,
          89,
          90,
          91,
          92,
          93,
          94,
          95,
          96,
          97,
          98,
          99,
          100,
          101,
          102,
          103,
          104,
          105,
          106,
          107,
          108,
          109,
          110,
          111,
          112,
          113,
          114,
          115,
          116,
          117,
          118,
          119,
          120,
          121,
          122,
          123,
          124,
          125,
          126
        ],
        "AcquisitionTime": [
          "084049.352500",
          "084051.692500",
          "084054.032500",
          "084056.372500",
          "084058.712500",
          "084101.052500",
          "084103.392500",
          "084105.732500",
          "084108.072500",
          "084110.412500",
          "084112.752500",
          "084115.092500",
          "084117.432500",
          "084119.772500",
          "084122.112500",
          "084124.452500",
          "084126.792500",
          "084129.132500",
          "084131.472500",
          "084133.812500",
          "084136.152500",
          "084138.492500",
          "084140.832500",
          "084143.172500",
          "084145.512500",
          "084147.852500",
          "084150.192500",
          "084152.532500",
          "084154.872500",
          "084157.212500",
          "084159.552500",
          "084201.892500",
          "084204.232500",
          "084206.572500",
          "084208.912500",
          "084211.252500",
          "084213.592500",
          "084215.932500",
          "084218.272500",
          "084220.612500",
          "084222.952500",
          "084225.292500",
          "084227.632500",
          "084229.972500",
          "084232.312500",
          "084234.652500",
          "084236.992500",
          "084239.332500",
          "084241.672500",
          "084244.012500",
          "084246.352500",
          "084248.692500",
          "084251.032500",
          "084253.372500",
          "084255.712500",
          "084258.052500",
          "084300.392500",
          "084302.732500",
          "084305.072500",
          "084307.412500",
          "084309.752500",
          "084312.092500",
          "084314.432500",
          "084316.772500",
          "084319.112500",
          "084321.452500",
          "084323.792500",
          "084326.132500",
          "084328.472500",
          "084330.812500",
          "084333.152500",
          "084335.492500",
          "084337.832500",
          "084340.172500",
          "084342.512500",
          "084344.852500",
          "084347.192500",
          "084349.532500",
          "084351.872500",
          "084354.212500",
          "084356.552500",
          "084358.892500",
          "084401.232500",
          "084403.572500",
          "084405.912500",
          "084408.252500",
          "084410.592500",
          "084412.932500",
          "084415.272500",
          "084417.612500",
          "084419.952500",
          "084422.292500",
          "084424.632500",
          "084426.972500",
          "084429.312500",
          "084431.652500",
          "084433.992500",
          "084436.332500",
          "084438.672500",
          "084441.012500",
          "084443.352500",
          "084445.692500",
          "084448.032500",
          "084450.372500",
          "084452.712500",
          "084455.052500",
          "084457.392500",
          "084459.732500",
          "084502.072500",
          "084504.412500",
          "084506.752500",
          "084509.092500",
          "084511.432500",
          "084513.772500",
          "084516.112500",
          "084518.452500",
          "084520.792500",
          "084523.132500",
          "084525.472500",
          "084527.812500",
          "084530.152500",
          "084532.492500",
          "084534.832500",
          "084537.172500",
          "084539.512500",
          "084541.852500"
        ],
        "ContentTime": [
          "084137.023000",
          "084137.027000",
          "084137.030000",
          "084137.032000",
          "084137.035000",
          "084137.042000",
          "084137.045000",
          "084137.048000",
          "084137.051000",
          "084137.053000",
          "084137.056000",
          "084137.059000",
          "084137.062000",
          "084137.064000",
          "084137.073000",
          "084137.075000",
          "084137.078000",
          "084137.081000",
          "084137.083000",
          "084137.087000",
          "084137.090000",
          "084237.015000",
          "084237.019000",
          "084237.022000",
          "084237.025000",
          "084237.034000",
          "084237.037000",
          "084237.039000",
          "084237.042000",
          "084237.045000",
          "084237.048000",
          "084237.051000",
          "084237.054000",
          "084237.057000",
          "084237.059000",
          "084237.062000",
          "084237.065000",
          "084237.068000",
          "084237.071000",
          "084237.073000",
          "084237.076000",
          "084237.079000",
          "084237.081000",
          "084237.084000",
          "084237.087000",
          "084237.089000",
          "084337.017000",
          "084337.020000",
          "084337.028000",
          "084337.030000",
          "084337.033000",
          "084337.036000",
          "084337.039000",
          "084337.041000",
          "084337.044000",
          "084337.047000",
          "084337.050000",
          "084337.052000",
          "084337.055000",
          "084337.057000",
          "084337.060000",
          "084337.063000",
          "084337.066000",
          "084337.068000",
          "084337.071000",
          "084337.074000",
          "084337.076000",
          "084337.079000",
          "084337.082000",
          "084337.085000",
          "084337.087000",
          "084337.090000",
          "084357.016000",
          "084357.024000",
          "084357.027000",
          "084357.030000",
          "084357.032000",
          "084357.035000",
          "084357.038000",
          "084357.041000",
          "084457.015000",
          "084457.025000",
          "084457.027000",
          "084457.030000",
          "084457.032000",
          "084457.036000",
          "084457.038000",
          "084457.041000",
          "084457.043000",
          "084457.046000",
          "084457.049000",
          "084457.052000",
          "084457.054000",
          "084457.057000",
          "084457.060000",
          "084457.062000",
          "084457.065000",
          "084457.068000",
          "084457.071000",
          "084457.074000",
          "084457.076000",
          "084457.079000",
          "084457.082000",
          "084457.084000",
          "084457.087000",
          "084457.090000",
          "084543.854000",
          "084543.864000",
          "084543.867000",
          "084543.879000",
          "084543.882000",
          "084543.886000",
          "084543.891000",
          "084543.895000",
          "084543.899000",
          "084543.903000",
          "084543.907000",
          "084543.910000",
          "084543.914000",
          "084543.917000",
          "084543.920000",
          "084543.925000",
          "084543.929000",
          "084543.932000",
          "084543.936000",
          "084543.941000"
        ],
        "InstanceCreationTime": [
          "084137.023000",
          "084137.027000",
          "084137.030000",
          "084137.032000",
          "084137.035000",
          "084137.042000",
          "084137.045000",
          "084137.048000",
          "084137.051000",
          "084137.053000",
          "084137.056000",
          "084137.059000",
          "084137.062000",
          "084137.064000",
          "084137.073000",
          "084137.075000",
          "084137.078000",
          "084137.081000",
          "084137.083000",
          "084137.087000",
          "084137.090000",
          "084237.015000",
          "084237.019000",
          "084237.022000",
          "084237.025000",
          "084237.034000",
          "084237.037000",
          "084237.039000",
          "084237.042000",
          "084237.045000",
          "084237.048000",
          "084237.051000",
          "084237.054000",
          "084237.057000",
          "084237.059000",
          "084237.062000",
          "084237.065000",
          "084237.068000",
          "084237.071000",
          "084237.073000",
          "084237.076000",
          "084237.079000",
          "084237.081000",
          "084237.084000",
          "084237.087000",
          "084237.089000",
          "084337.017000",
          "084337.020000",
          "084337.028000",
          "084337.030000",
          "084337.033000",
          "084337.036000",
          "084337.039000",
          "084337.041000",
          "084337.044000",
          "084337.047000",
          "084337.050000",
          "084337.052000",
          "084337.055000",
          "084337.057000",
          "084337.060000",
          "084337.063000",
          "084337.066000",
          "084337.068000",
          "084337.071000",
          "084337.074000",
          "084337.076000",
          "084337.079000",
          "084337.082000",
          "084337.085000",
          "084337.087000",
          "084337.090000",
          "084357.016000",
          "084357.024000",
          "084357.027000",
          "084357.030000",
          "084357.032000",
          "084357.035000",
          "084357.038000",
          "084357.041000",
          "084457.015000",
          "084457.025000",
          "084457.027000",
          "084457.030000",
          "084457.032000",
          "084457.036000",
          "084457.038000",
          "084457.041000",
          "084457.043000",
          "084457.046000",
          "084457.049000",
          "084457.052000",
          "084457.054000",
          "084457.057000",
          "084457.060000",
          "084457.062000",
          "084457.065000",
          "084457.068000",
          "084457.071000",
          "084457.074000",
          "084457.076000",
          "084457.079000",
          "084457.082000",
          "084457.084000",
          "084457.087000",
          "084457.090000",
          "084543.854000",
          "084543.864000",
          "084543.867000",
          "084543.879000",
          "084543.882000",
          "084543.886000",
          "084543.891000",
          "084543.895000",
          "084543.899000",
          "084543.903000",
          "084543.907000",
          "084543.910000",
          "084543.914000",
          "084543.917000",
          "084543.920000",
          "084543.925000",
          "084543.929000",
          "084543.932000",
          "084543.936000",
          "084543.941000"
        ],
        "InstanceNumber": [
          1,
          2,
          3,
          4,
          5,
          6,
          7,
          8,
          9,
          10,
          11,
          12,
          13,
          14,
          15,
          16,
          17,
          18,
          19,
          20,
          21,
          22,
          23,
          24,
          25,
          26,
          27,
          28,
          29,
          30,
          31,
          32,
          33,
          34,
          35,
          36,
          37,
          38,
          39,
          40,
          41,
          42,
          43,
          44,
          45,
          46,
          47,
          48,
          49,
          50,
          51,
          52,
          53,
          54,
          55,
          56,
          57,
          58,
          59,
          60,
          61,
          62,
          63,
          64,
          65,
          66,
          67,
          68,
          69,
          70,
          71,
          72,
          73,
          74,
          75,
          76,
          77,
          78,
          79,
          80,
          81,
          82,
          83,
          84,
          85,
          86,
          87,
          88,
          89,
          90,
          91,
          92,
          93,
          94,
          95,
          96,
          97,
          98,
          99,
          100,
          101,
          102,
          103,
          104,
          105,
          106,
          107,
          108,
          109,
          110,
          111,
          112,
          113,
          114,
          115,
          116,
          117,
          118,
          119,
          120,
          121,
          122,
          123,
          124,
          125,
          126
        ],
        "LargestImagePixelValue": [
          2446,
          2255,
          2251,
          2050,
          2044,
          1993,
          2157,
          1840,
          2103,
          2589,
          2092,
          2387,
          2074,
          2067,
          2228,
          2064,
          2347,
          1935,
          2126,
          2021,
          2149,
          2026,
          2199,
          2020,
          2098,
          2198,
          2274,
          2115,
          2265,
          2248,
          2097,
          2101,
          2267,
          2064,
          2066,
          2058,
          2199,
          2348,
          2194,
          1991,
          2233,
          1946,
          1908,
          2030,
          2234,
          2516,
          2077,
          2102,
          2266,
          2306,
          2121,
          2096,
          1966,
          2044,
          2212,
          2273,
          2210,
          1770,
          2404,
          2082,
          1996,
          2184,
          2070,
          1978,
          2048,
          2304,
          2228,
          2347,
          1866,
          2052,
          1991,
          1884,
          2083,
          2117,
          2240,
          2504,
          2224,
          2191,
          2082,
          2316,
          2301,
          2429,
          2027,
          2441,
          2435,
          2187,
          1827,
          2240,
          1999,
          2217,
          1753,
          2397,
          2371,
          2705,
          2312,
          2189,
          1947,
          1846,
          2172,
          2192,
          2042,
          1798,
          2035,
          2264,
          2045,
          2667,
          2862,
          1998,
          1801,
          2192,
          2184,
          1949,
          2103,
          2431,
          2023,
          1856,
          2340,
          2104,
          1991,
          2127,
          2167,
          2152,
          2176,
          2289,
          2174,
          2021
        ],
        "WindowCenter": [
          813.0,
          811.0,
          810.0,
          809.0,
          810.0,
          810.0,
          810.0,
          811.0,
          810.0,
          811.0,
          811.0,
          810.0,
          809.0,
          814.0,
          810.0,
          810.0,
          808.0,
          811.0,
          808.0,
          813.0,
          810.0,
          810.0,
          813.0,
          811.0,
          811.0,
          811.0,
          810.0,
          810.0,
          810.0,
          811.0,
          809.0,
          811.0,
          810.0,
          813.0,
          811.0,
          814.0,
          810.0,
          811.0,
          809.0,
          811.0,
          809.0,
          812.0,
          812.0,
          812.0,
          813.0,
          813.0,
          814.0,
          812.0,
          812.0,
          811.0,
          810.0,
          811.0,
          811.0,
          812.0,
          812.0,
          810.0,
          811.0,
          814.0,
          815.0,
          812.0,
          811.0,
          813.0,
          816.0,
          813.0,
          813.0,
          815.0,
          814.0,
          813.0,
          812.0,
          813.0,
          814.0,
          813.0,
          814.0,
          813.0,
          815.0,
          813.0,
          812.0,
          812.0,
          810.0,
          809.0,
          811.0,
          811.0,
          809.0,
          809.0,
          807.0,
          808.0,
          809.0,
          810.0,
          814.0,
          810.0,
          812.0,
          813.0,
          816.0,
          811.0,
          809.0,
          809.0,
          808.0,
          807.0,
          809.0,
          814.0,
          810.0,
          811.0,
          815.0,
          815.0,
          815.0,
          814.0,
          813.0,
          813.0,
          809.0,
          811.0,
          810.0,
          813.0,
          813.0,
          816.0,
          811.0,
          815.0,
          814.0,
          811.0,
          811.0,
          812.0,
          814.0,
          814.0,
          812.0,
          812.0,
          811.0,
          811.0
        ],
        "WindowWidth": [
          1743.0,
          1736.0,
          1733.0,
          1730.0,
          1733.0,
          1731.0,
          1732.0,
          1733.0,
          1733.0,
          1736.0,
          1734.0,
          1731.0,
          1731.0,
          1743.0,
          1734.0,
          1731.0,
          1729.0,
          1733.0,
          1732.0,
          1738.0,
          1731.0,
          1733.0,
          1739.0,
          1733.0,
          1735.0,
          1735.0,
          1733.0,
          1731.0,
          1733.0,
          1733.0,
          1728.0,
          1734.0,
          1734.0,
          1737.0,
          1732.0,
          1743.0,
          1732.0,
          1735.0,
          1728.0,
          1733.0,
          1732.0,
          1735.0,
          1734.0,
          1739.0,
          1740.0,
          1741.0,
          1740.0,
          1734.0,
          1736.0,
          1737.0,
          1734.0,
          1736.0,
          1734.0,
          1738.0,
          1737.0,
          1733.0,
          1732.0,
          1740.0,
          1745.0,
          1734.0,
          1733.0,
          1742.0,
          1746.0,
          1740.0,
          1742.0,
          1744.0,
          1744.0,
          1739.0,
          1737.0,
          1739.0,
          1741.0,
          1739.0,
          1742.0,
          1741.0,
          1745.0,
          1740.0,
          1737.0,
          1735.0,
          1732.0,
          1729.0,
          1733.0,
          1733.0,
          1729.0,
          1729.0,
          1723.0,
          1730.0,
          1728.0,
          1734.0,
          1739.0,
          1730.0,
          1731.0,
          1740.0,
          1745.0,
          1738.0,
          1729.0,
          1728.0,
          1726.0,
          1724.0,
          1730.0,
          1740.0,
          1730.0,
          1736.0,
          1744.0,
          1744.0,
          1744.0,
          1742.0,
          1739.0,
          1736.0,
          1730.0,
          1734.0,
          1731.0,
          1738.0,
          1739.0,
          1747.0,
          1732.0,
          1745.0,
          1741.0,
          1731.0,
          1735.0,
          1741.0,
          1742.0,
          1743.0,
          1738.0,
          1738.0,
          1733.0,
          1733.0
        ]
      },
      "slices": {}
    }
  },
  "dummy_trs": 0,
  "dvars_nstd": 45.116654723919986,
  "dvars_std": 1.2984773640799994,
  "dvars_vstd": 1.0685946971199993,
  "efc": 0.5620149854859349,
  "fber": 1769.1158447265625,
  "fd_mean": 0.7110754618989876,
  "fd_num": 119,
  "fd_perc": 94.44444444444444,
  "fwhm_avg": 1.6773976843135994,
  "fwhm_x": 1.53078,
  "fwhm_y": 1.9347433333333333,
  "fwhm_z": 1.5666697196074648,
  "gcor": 0.0248296,
  "gsr_x": -0.013029449619352818,
  "gsr_y": 0.043922893702983856,
  "provenance": {
    "md5sum": "d20b9e66af04247116196673455436c8",
    "settings": {
      "fd_thres": 0.2,
      "testing": false
    },
    "software": "mriqc",
    "version": "22.0.1",
    "webapi_port": null,
    "webapi_url": "https://mriqc.nimh.nih.gov/api/v1"
  },
  "size_t": 126,
  "size_x": 64,
  "size_y": 64,
  "size_z": 34,
  "snr": 7.641890436183691,
  "spacing_tr": 2.3399999141693115,
  "spacing_x": 3.0,
  "spacing_y": 3.0,
  "spacing_z": 3.299999952316284,
  "summary_bg_k": 62.25366919462883,
  "summary_bg_mad": 8.883849499485411,
  "summary_bg_mean": 35.070560455322266,
  "summary_bg_median": 22.4920654296875,
  "summary_bg_n": 73953.0,
  "summary_bg_p05": 13.365079879760742,
  "summary_bg_p95": 91.70159149169918,
  "summary_bg_stdv": 50.48393249511719,
  "summary_fg_k": 4.125717461888815,
  "summary_fg_mad": 112.1776708793401,
  "summary_fg_mean": 968.2325439453125,
  "summary_fg_median": 964.7897338867188,
  "summary_fg_n": 33324.0,
  "summary_fg_p05": 792.1385192871094,
  "summary_fg_p95": 1155.2996520996091,
  "summary_fg_stdv": 126.24824523925781,
  "tsnr": 44.99334995658137
}