{
  "aor": 0.00541712,
  "aqi": 0.03573538399999999,
  "bids_meta": {
    "AcquisitionMatrixPE": 64,
    "AcquisitionNumber": 1,
    "AcquisitionTime": "08:52:31.362500",
    "BandwidthPerPixelPhaseEncode": 24.038,
    "BaseResolution": 64,
    "BodyPartExamined": "HEAD",
    "ConsistencyInfo": "N4_VD13A_LATEST_20120616",
    "ConversionSoftware": "dcm2niix",
    "ConversionSoftwareVersion": "v1.0.20181125  GCC6.3.0",
    "DerivedVendorReportedEchoSpacing": 0.000650012,
    "DeviceSerialNumber": "45250",
    "DwellTime": 4.6e-06,
    "EchoTime": 0.033,
    "EchoTrainLength": 64,
    "EffectiveEchoSpacing": 0.000650012,
    "FlipAngle": 90,
    "ImageOrientationPatientDICOM": [
      0.999828,
      -0.0158205,
      -0.00968683,
      0.0139611,
      0.985578,
      -0.168642
    ],
    "ImageType": [
      "ORIGINAL",
      "PRIMARY",
      "M",
      "ND",
      "NORM",
      "MOSAIC"
    ],
    "ImagingFrequency": 123.22,
    "InPlanePhaseEncodingDirectionDICOM": "COL",
    "InstitutionAddress": "Kopernikusstr._26_Graz_Graz_AT_8010",
    "InstitutionName": "KFU",
    "InstitutionalDepartmentName": "Department",
    "MRAcquisitionType": "2D",
    "MagneticFieldStrength": 3,
    "Manufacturer": "Siemens",
    "ManufacturersModelName": "Skyra",
    "Modality": "MR",
    "PartialFourier": 1,
    "PatientPosition": "HFS",
    "PercentPhaseFOV": 100,
    "PhaseEncodingDirection": "j-",
    "PhaseEncodingSteps": 64,
    "PhaseResolution": 1,
    "PixelBandwidth": 1700,
    "ProcedureStepDescription": "KFU_Entw-Psy",
    "ProtocolName": "fMRI_3",
    "PulseSequenceDetails": "%SiemensSeq%_ep2d_pace",
    "ReceiveCoilActiveElements": "HE1-4",
    "ReceiveCoilName": "HeadNeck_20",
    "ReconMatrixPE": 64,
    "RepetitionTime": 2.34,
    "SAR": 0.16928,
    "ScanOptions": "FS",
    "ScanningSequence": "EP",
    "SequenceName": "_epfid2d1_64",
    "SequenceVariant": "SK",
    "SeriesDescription": "fMRI_3",
    "SeriesNumber": 8,
    "ShimSetting": [
      -1679,
      -3752,
      -4373,
      370,
      352,
      -273,
      412,
      -345
    ],
    "SliceThickness": 3,
    "SliceTiming": [
      2.2525,
      2.185,
      2.1175,
      2.0475,
      1.98,
      1.9125,
      1.8425,
      1.775,
      1.7075,
      1.6375,
      1.57,
      1.5025,
      1.435,
      1.365,
      1.2975,
      1.23,
      1.16,
      1.0925,
      1.025,
      0.9575,
      0.8875,
      0.82,
      0.7525,
      0.6825,
      0.615,
      0.5475,
      0.4775,
      0.41,
      0.3425,
      0.275,
      0.205,
      0.1375,
      0.07,
      0
    ],
    "SoftwareVersions": "syngo_MR_D13",
    "SpacingBetweenSlices": 3.3,
    "StationName": "FBMTMR1",
    "TaskName": "read",
    "TotalReadoutTime": 0.0409508,
    "TxRefAmp": 332.05,
    "dataset": "ds003126",
    "dcmmeta_affine": [
      [
        -2.999483823776245,
        0.04188339412212372,
        -0.04030993580818176,
        97.4309310913086
      ],
      [
        0.047461483627557755,
        2.956735372543335,
        -0.5559777021408081,
        -110.5654067993164
      ],
      [
        -0.029060479253530502,
        0.5059270262718201,
        3.252578020095825,
        -23.10698127746582
      ],
      [
        0.0,
        0.0,
        0.0,
        1.0
      ]
    ],
    "dcmmeta_reorient_transform": [
      [
        0.0,
        -1.0,
        0.0,
        63.0
      ],
      [
        1.0,
        0.0,
        0.0,
        0.0
      ],
      [
        0.0,
        0.0,
        1.0,
        0.0
      ],
      [
        0.0,
        0.0,
        0.0,
        1.0
      ]
    ],
    "dcmmeta_shape": [
      64,
      64,
      34,
      125
    ],
    "dcmmeta_slice_dim": 2,
    "dcmmeta_version": 0.6,
    "global": {
      "const": {
        "AcquisitionMatrix": [
          64,
          0,
          0,
          64
        ],
        "AngioFlag": "N",
        "BitsAllocated": 16,
        "BitsStored": 12,
        "BodyPartExamined": "HEAD",
        "Columns": 384,
        "EchoNumbers": 1,
        "EchoTime": 33.0,
        "EchoTrainLength": 64,
        "FlipAngle": 90.0,
        "HighBit": 11,
        "ImageOrientationPatient": [
          0.99982792387133,
          -0.0158204942163,
          -0.0096868266167,
          0.01396113110137,
          0.98557843222416,
          -0.1686423456696
        ],
        "ImagePositionPatient": [
          -586.68833406798,
          -541.19272820684,
          94.36442521259
        ],
        "ImageType": [
          "ORIGINAL",
          "PRIMARY",
          "M",
          "ND",
          "NORM",
          "MOSAIC"
        ],
        "ImagedNucleus": "1H",
        "ImagingFrequency": 123.22011,
        "InPlanePhaseEncodingDirection": "COL",
        "MRAcquisitionType": "2D",
        "MagneticFieldStrength": 3.0,
        "Manufacturer": "SIEMENS",
        "ManufacturerModelName": "Skyra",
        "Modality": "MR",
        "NumberOfAverages": 1.0,
        "NumberOfPhaseEncodingSteps": 64,
        "PercentPhaseFieldOfView": 100.0,
        "PercentSampling": 100.0,
        "PerformedProcedureStepStartTime": "082951.914000",
        "PhotometricInterpretation": "MONOCHROME2",
        "PixelBandwidth": 1700.0,
        "PixelRepresentation": 0,
        "PixelSpacing": [
          3.0,
          3.0
        ],
        "ProtocolName": "fMRI_3",
        "RepetitionTime": 2340.0,
        "Rows": 384,
        "SAR": 0.16928042860285,
        "SamplesPerPixel": 1,
        "ScanOptions": "FS",
        "ScanningSequence": "EP",
        "SequenceName": "*epfid2d1_64",
        "SequenceVariant": "SK",
        "SeriesDescription": "fMRI_3",
        "SeriesNumber": 8,
        "SeriesTime": "085319.206000",
        "SliceLocation": -5.3372104977744,
        "SliceThickness": 3.0,
        "SmallestImagePixelValue": 0,
        "SoftwareVersions": "syngo MR D13",
        "SpacingBetweenSlices": 3.2999999412805,
        "SpecificCharacterSet": "ISO_IR 100",
        "StudyID": "1",
        "StudyTime": "082951.869000",
        "TransmitCoilName": "Body",
        "VariableFlipAngleFlag": "N",
        "WindowCenterWidthExplanation": "Algo1",
        "dBdt": 0.0
      },
      "slices": {}
    },
    "modality": "bold",
    "run_id": 3,
    "session_id": "2",
    "subject_id": "047EPKL011059",
    "task_id": "read",
    "time": {
      "samples": {
        "AcquisitionNumber": [
          1,
          2,
          3,
          4,
          5,
          6,
          7,
          8,
          9,
          10,
          11,
          12,
          13,
          14,
          15,
          16,
          17,
          18,
          19,
          20,
          21,
          22,
          23,
          24,
          25,
          26,
          27,
          28,
          29,
          30,
          31,
          32,
          33,
          34,
          35,
          36,
          37,
          38,
          39,
          40,
          41,
          42,
          43,
          44,
          45,
          46,
          47,
          48,
          49,
          50,
          51,
          52,
          53,
          54,
          55,
          56,
          57,
          58,
          59,
          60,
          61,
          62,
          63,
          64,
          65,
          66,
          67,
          68,
          69,
          70,
          71,
          72,
          73,
          74,
          75,
          76,
          77,
          78,
          79,
          80,
          81,
          82,
          83,
          84,
          85,
          86,
          87,
          88,
          89,
          90,
          91,
          92,
          93,
          94,
          95,
          96,
          97,
          98,
          99,
          100,
          101,
          102,
          103,
          104,
          105,
          106,
          107,
          108,
          109,
          110,
          111,
          112,
          113,
          114,
          115,
          116,
          117,
          118,
          119,
          120,
          121,
          122,
          123,
          124,
          125
        ],
        "AcquisitionTime": [
          "085231.362500",
          "085233.702500",
          "085236.042500",
          "085238.382500",
          "085240.722500",
          "085243.062500",
          "085245.402500",
          "085247.742500",
          "085250.082500",
          "085252.422500",
          "085254.762500",
          "085257.102500",
          "085259.442500",
          "085301.782500",
          "085304.122500",
          "085306.462500",
          "085308.802500",
          "085311.142500",
          "085313.482500",
          "085315.822500",
          "085318.162500",
          "085320.502500",
          "085322.842500",
          "085325.182500",
          "085327.522500",
          "085329.862500",
          "085332.202500",
          "085334.542500",
          "085336.882500",
          "085339.222500",
          "085341.562500",
          "085343.902500",
          "085346.242500",
          "085348.582500",
          "085350.922500",
          "085353.262500",
          "085355.602500",
          "085357.942500",
          "085400.282500",
          "085402.622500",
          "085404.962500",
          "085407.302500",
          "085409.642500",
          "085411.982500",
          "085414.322500",
          "085416.662500",
          "085419.002500",
          "085421.342500",
          "085423.682500",
          "085426.022500",
          "085428.362500",
          "085430.702500",
          "085433.042500",
          "085435.382500",
          "085437.722500",
          "085440.062500",
          "085442.402500",
          "085444.742500",
          "085447.082500",
          "085449.422500",
          "085451.762500",
          "085454.102500",
          "085456.442500",
          "085458.782500",
          "085501.122500",
          "085503.462500",
          "085505.802500",
          "085508.142500",
          "085510.482500",
          "085512.822500",
          "085515.162500",
          "085517.502500",
          "085519.842500",
          "085522.182500",
          "085524.522500",
          "085526.862500",
          "085529.202500",
          "085531.542500",
          "085533.882500",
          "085536.222500",
          "085538.562500",
          "085540.902500",
          "085543.242500",
          "085545.582500",
          "085547.922500",
          "085550.262500",
          "085552.602500",
          "085554.942500",
          "085557.282500",
          "085559.622500",
          "085601.962500",
          "085604.302500",
          "085606.642500",
          "085608.982500",
          "085611.322500",
          "085613.662500",
          "085616.002500",
          "085618.342500",
          "085620.682500",
          "085623.022500",
          "085625.362500",
          "085627.702500",
          "085630.042500",
          "085632.382500",
          "085634.722500",
          "085637.062500",
          "085639.402500",
          "085641.742500",
          "085644.082500",
          "085646.422500",
          "085648.762500",
          "085651.102500",
          "085653.442500",
          "085655.782500",
          "085658.122500",
          "085700.462500",
          "085702.802500",
          "085705.142500",
          "085707.482500",
          "085709.822500",
          "085712.162500",
          "085714.502500",
          "085716.842500",
          "085719.182500",
          "085721.522500"
        ],
        "ContentTime": [
          "085319.210000",
          "085319.214000",
          "085319.216000",
          "085319.225000",
          "085319.228000",
          "085319.231000",
          "085319.233000",
          "085319.236000",
          "085319.239000",
          "085319.241000",
          "085319.244000",
          "085319.247000",
          "085319.249000",
          "085319.252000",
          "085319.255000",
          "085319.257000",
          "085319.260000",
          "085319.262000",
          "085319.265000",
          "085319.268000",
          "085319.271000",
          "085339.204000",
          "085339.208000",
          "085339.210000",
          "085339.218000",
          "085339.221000",
          "085339.224000",
          "085339.226000",
          "085339.229000",
          "085439.205000",
          "085439.208000",
          "085439.216000",
          "085439.219000",
          "085439.221000",
          "085439.224000",
          "085439.227000",
          "085439.230000",
          "085439.232000",
          "085439.235000",
          "085439.238000",
          "085439.240000",
          "085439.243000",
          "085439.246000",
          "085439.249000",
          "085439.251000",
          "085439.254000",
          "085439.257000",
          "085439.260000",
          "085439.262000",
          "085439.265000",
          "085439.268000",
          "085439.271000",
          "085439.273000",
          "085439.276000",
          "085439.279000",
          "085539.204000",
          "085539.207000",
          "085539.213000",
          "085539.216000",
          "085539.219000",
          "085539.223000",
          "085539.227000",
          "085539.230000",
          "085539.233000",
          "085539.236000",
          "085539.239000",
          "085539.242000",
          "085539.244000",
          "085539.247000",
          "085539.250000",
          "085539.253000",
          "085539.256000",
          "085539.259000",
          "085539.262000",
          "085539.265000",
          "085539.267000",
          "085539.270000",
          "085539.273000",
          "085539.276000",
          "085539.279000",
          "085639.205000",
          "085639.208000",
          "085639.211000",
          "085639.214000",
          "085639.222000",
          "085639.225000",
          "085639.228000",
          "085639.230000",
          "085639.239000",
          "085639.242000",
          "085639.244000",
          "085639.247000",
          "085639.250000",
          "085639.253000",
          "085639.255000",
          "085639.258000",
          "085639.261000",
          "085639.264000",
          "085639.266000",
          "085639.269000",
          "085639.272000",
          "085639.275000",
          "085639.277000",
          "085639.280000",
          "085639.283000",
          "085639.285000",
          "085723.491000",
          "085723.495000",
          "085723.498000",
          "085723.501000",
          "085723.509000",
          "085723.513000",
          "085723.516000",
          "085723.519000",
          "085723.522000",
          "085723.525000",
          "085723.527000",
          "085723.530000",
          "085723.535000",
          "085723.538000",
          "085723.540000",
          "085723.543000",
          "085723.546000",
          "085723.550000",
          "085723.554000"
        ],
        "InstanceCreationTime": [
          "085319.210000",
          "085319.214000",
          "085319.216000",
          "085319.225000",
          "085319.228000",
          "085319.231000",
          "085319.233000",
          "085319.236000",
          "085319.239000",
          "085319.241000",
          "085319.244000",
          "085319.247000",
          "085319.249000",
          "085319.252000",
          "085319.255000",
          "085319.257000",
          "085319.260000",
          "085319.262000",
          "085319.265000",
          "085319.268000",
          "085319.271000",
          "085339.204000",
          "085339.208000",
          "085339.210000",
          "085339.218000",
          "085339.221000",
          "085339.224000",
          "085339.226000",
          "085339.229000",
          "085439.205000",
          "085439.208000",
          "085439.216000",
          "085439.219000",
          "085439.221000",
          "085439.224000",
          "085439.227000",
          "085439.230000",
          "085439.232000",
          "085439.235000",
          "085439.238000",
          "085439.240000",
          "085439.243000",
          "085439.246000",
          "085439.249000",
          "085439.251000",
          "085439.254000",
          "085439.257000",
          "085439.260000",
          "085439.262000",
          "085439.265000",
          "085439.268000",
          "085439.271000",
          "085439.273000",
          "085439.276000",
          "085439.279000",
          "085539.204000",
          "085539.207000",
          "085539.213000",
          "085539.216000",
          "085539.219000",
          "085539.223000",
          "085539.227000",
          "085539.230000",
          "085539.233000",
          "085539.236000",
          "085539.239000",
          "085539.242000",
          "085539.244000",
          "085539.247000",
          "085539.250000",
          "085539.253000",
          "085539.256000",
          "085539.259000",
          "085539.262000",
          "085539.265000",
          "085539.267000",
          "085539.270000",
          "085539.273000",
          "085539.276000",
          "085539.279000",
          "085639.205000",
          "085639.208000",
          "085639.211000",
          "085639.214000",
          "085639.222000",
          "085639.225000",
          "085639.228000",
          "085639.230000",
          "085639.239000",
          "085639.242000",
          "085639.244000",
          "085639.247000",
          "085639.250000",
          "085639.253000",
          "085639.255000",
          "085639.258000",
          "085639.261000",
          "085639.264000",
          "085639.266000",
          "085639.269000",
          "085639.272000",
          "085639.275000",
          "085639.277000",
          "085639.280000",
          "085639.283000",
          "085639.285000",
          "085723.491000",
          "085723.495000",
          "085723.498000",
          "085723.501000",
          "085723.509000",
          "085723.513000",
          "085723.516000",
          "085723.519000",
          "085723.522000",
          "085723.525000",
          "085723.527000",
          "085723.530000",
          "085723.535000",
          "085723.538000",
          "085723.540000",
          "085723.543000",
          "085723.546000",
          "085723.550000",
          "085723.554000"
        ],
        "InstanceNumber": [
          1,
          2,
          3,
          4,
          5,
          6,
          7,
          8,
          9,
          10,
          11,
          12,
          13,
          14,
          15,
          16,
          17,
          18,
          19,
          20,
          21,
          22,
          23,
          24,
          25,
          26,
          27,
          28,
          29,
          30,
          31,
          32,
          33,
          34,
          35,
          36,
          37,
          38,
          39,
          40,
          41,
          42,
          43,
          44,
          45,
          46,
          47,
          48,
          49,
          50,
          51,
          52,
          53,
          54,
          55,
          56,
          57,
          58,
          59,
          60,
          61,
          62,
          63,
          64,
          65,
          66,
          67,
          68,
          69,
          70,
          71,
          72,
          73,
          74,
          75,
          76,
          77,
          78,
          79,
          80,
          81,
          82,
          83,
          84,
          85,
          86,
          87,
          88,
          89,
          90,
          91,
          92,
          93,
          94,
          95,
          96,
          97,
          98,
          99,
          100,
          101,
          102,
          103,
          104,
          105,
          106,
          107,
          108,
          109,
          110,
          111,
          112,
          113,
          114,
          115,
          116,
          117,
          118,
          119,
          120,
          121,
          122,
          123,
          124,
          125
        ],
        "LargestImagePixelValue": [
          1959,
          2409,
          2348,
          2603,
          2225,
          2365,
          2094,
          2231,
          2170,
          1824,
          2496,
          2660,
          2007,
          1763,
          2447,
          2167,
          1988,
          1946,
          2112,
          2333,
          1965,
          2539,
          2301,
          2372,
          1889,
          1945,
          2663,
          1972,
          2064,
          2425,
          2176,
          1958,
          1800,
          2034,
          2169,
          2119,
          2942,
          1778,
          1897,
          1894,
          2206,
          2459,
          1943,
          2304,
          2153,
          1972,
          2153,
          2444,
          1947,
          1744,
          2105,
          2293,
          2069,
          2228,
          2243,
          2398,
          2334,
          2013,
          1810,
          1862,
          2517,
          2258,
          2135,
          2392,
          2211,
          1836,
          2004,
          2092,
          1894,
          1986,
          2056,
          1802,
          2515,
          2277,
          2246,
          1910,
          1921,
          2367,
          1991,
          2317,
          2261,
          2669,
          2234,
          2116,
          2157,
          1792,
          2176,
          2135,
          2024,
          1761,
          1925,
          1912,
          2284,
          2240,
          2385,
          1942,
          2257,
          2304,
          1888,
          2109,
          2275,
          1801,
          2428,
          2567,
          1934,
          1835,
          2186,
          2427,
          1765,
          2261,
          2457,
          2032,
          2197,
          2472,
          2000,
          2279,
          1870,
          2288,
          1950,
          2868,
          1832,
          2154,
          2209,
          1813,
          2168
        ],
        "WindowCenter": [
          814.0,
          814.0,
          812.0,
          810.0,
          813.0,
          810.0,
          812.0,
          811.0,
          812.0,
          810.0,
          812.0,
          808.0,
          806.0,
          808.0,
          808.0,
          811.0,
          811.0,
          814.0,
          814.0,
          813.0,
          812.0,
          810.0,
          812.0,
          813.0,
          813.0,
          809.0,
          810.0,
          813.0,
          811.0,
          812.0,
          809.0,
          813.0,
          811.0,
          815.0,
          812.0,
          810.0,
          808.0,
          813.0,
          811.0,
          817.0,
          814.0,
          814.0,
          812.0,
          815.0,
          812.0,
          811.0,
          808.0,
          813.0,
          813.0,
          814.0,
          818.0,
          814.0,
          813.0,
          811.0,
          811.0,
          812.0,
          811.0,
          810.0,
          812.0,
          813.0,
          814.0,
          814.0,
          812.0,
          813.0,
          809.0,
          809.0,
          808.0,
          810.0,
          808.0,
          810.0,
          813.0,
          815.0,
          816.0,
          819.0,
          812.0,
          814.0,
          815.0,
          816.0,
          817.0,
          816.0,
          814.0,
          817.0,
          814.0,
          813.0,
          811.0,
          814.0,
          813.0,
          813.0,
          812.0,
          817.0,
          814.0,
          814.0,
          816.0,
          817.0,
          815.0,
          815.0,
          815.0,
          815.0,
          812.0,
          816.0,
          815.0,
          816.0,
          813.0,
          815.0,
          812.0,
          818.0,
          813.0,
          816.0,
          816.0,
          817.0,
          814.0,
          816.0,
          816.0,
          815.0,
          818.0,
          817.0,
          816.0,
          816.0,
          817.0,
          817.0,
          814.0,
          816.0,
          815.0,
          814.0,
          816.0
        ],
        "WindowWidth": [
          1739.0,
          1741.0,
          1737.0,
          1735.0,
          1736.0,
          1732.0,
          1735.0,
          1737.0,
          1735.0,
          1733.0,
          1739.0,
          1729.0,
          1722.0,
          1727.0,
          1732.0,
          1733.0,
          1733.0,
          1743.0,
          1741.0,
          1739.0,
          1736.0,
          1736.0,
          1737.0,
          1741.0,
          1737.0,
          1728.0,
          1732.0,
          1740.0,
          1735.0,
          1738.0,
          1731.0,
          1738.0,
          1735.0,
          1747.0,
          1738.0,
          1731.0,
          1732.0,
          1736.0,
          1733.0,
          1752.0,
          1743.0,
          1743.0,
          1739.0,
          1743.0,
          1737.0,
          1739.0,
          1734.0,
          1741.0,
          1739.0,
          1746.0,
          1753.0,
          1745.0,
          1743.0,
          1735.0,
          1735.0,
          1737.0,
          1735.0,
          1733.0,
          1737.0,
          1742.0,
          1745.0,
          1741.0,
          1738.0,
          1740.0,
          1728.0,
          1733.0,
          1729.0,
          1731.0,
          1728.0,
          1733.0,
          1739.0,
          1745.0,
          1753.0,
          1756.0,
          1739.0,
          1742.0,
          1746.0,
          1750.0,
          1750.0,
          1747.0,
          1745.0,
          1751.0,
          1742.0,
          1738.0,
          1737.0,
          1744.0,
          1743.0,
          1740.0,
          1742.0,
          1748.0,
          1743.0,
          1746.0,
          1749.0,
          1752.0,
          1749.0,
          1744.0,
          1745.0,
          1747.0,
          1741.0,
          1749.0,
          1749.0,
          1751.0,
          1743.0,
          1744.0,
          1735.0,
          1754.0,
          1745.0,
          1750.0,
          1746.0,
          1751.0,
          1745.0,
          1748.0,
          1749.0,
          1750.0,
          1750.0,
          1752.0,
          1747.0,
          1751.0,
          1750.0,
          1753.0,
          1742.0,
          1748.0,
          1749.0,
          1746.0,
          1750.0
        ]
      },
      "slices": {}
    }
  },
  "dummy_trs": 0,
  "dvars_nstd": 56.882703119435504,
  "dvars_std": 1.3022224862096774,
  "dvars_vstd": 1.0407031387903227,
  "efc": 0.5616528069081487,
  "fber": 1731.433349609375,
  "fd_mean": 0.9877996851758548,
  "fd_num": 123,
  "fd_perc": 98.4,
  "fwhm_avg": 1.684135058097431,
  "fwhm_x": 1.53636,
  "fwhm_y": 1.93973,
  "fwhm_z": 1.5763151742922923,
  "gcor": 0.0416273,
  "gsr_x": -0.012843967415392399,
  "gsr_y": 0.04440481215715408,
  "provenance": {
    "md5sum": "4cda1c8a8b77935ec1150b095ef294ad",
    "settings": {
      "fd_thres": 0.2,
      "testing": false
    },
    "software": "mriqc",
    "version": "22.0.1",
    "webapi_port": null,
    "webapi_url": "https://mriqc.nimh.nih.gov/api/v1"
  },
  "size_t": 125,
  "size_x": 64,
  "size_y": 64,
  "size_z": 34,
  "snr": 7.639697780085674,
  "spacing_tr": 2.3399999141693115,
  "spacing_x": 3.0,
  "spacing_y": 3.0,
  "spacing_z": 3.299999952316284,
  "summary_bg_k": 62.94705109238865,
  "summary_bg_mad": 9.002361417315594,
  "summary_bg_mean": 35.27030944824219,
  "summary_bg_median": 22.856000900268555,
  "summary_bg_n": 74083.0,
  "summary_bg_p05": 13.5600004196167,
  "summary_bg_p95": 92.05360717773424,
  "summary_bg_stdv": 49.45804977416992,
  "summary_fg_k": 4.094262305246904,
  "summary_fg_mad": 112.22707888784254,
  "summary_fg_mean": 972.6414184570312,
  "summary_fg_median": 969.260009765625,
  "summary_fg_n": 33280.0,
  "summary_fg_p05": 794.8636138916015,
  "summary_fg_p95": 1160.4108825683593,
  "summary_fg_stdv": 126.8696060180664,
  "tsnr": 38.765961290337145
}