{
  "aor": 0.004331015624999999,
  "aqi": 0.018816216328125003,
  "bids_meta": {
    "AcquisitionMatrixPE": 64,
    "AcquisitionNumber": 1,
    "AcquisitionTime": "12:08:8.707500",
    "BandwidthPerPixelPhaseEncode": 24.038,
    "BaseResolution": 64,
    "BodyPartExamined": "HEAD",
    "ConsistencyInfo": "N4_VD13A_LATEST_20120616",
    "ConversionSoftware": "dcm2niix",
    "ConversionSoftwareVersion": "v1.0.20181125  GCC6.3.0",
    "DerivedVendorReportedEchoSpacing": 0.000650012,
    "DeviceSerialNumber": "45250",
    "DwellTime": 4.6e-06,
    "EchoTime": 0.033,
    "EchoTrainLength": 64,
    "EffectiveEchoSpacing": 0.000650012,
    "FlipAngle": 90,
    "ImageOrientationPatientDICOM": [
      0.999802,
      -0.0159181,
      -0.0119376,
      0.0157061,
      0.999721,
      -0.0176434
    ],
    "ImageType": [
      "ORIGINAL",
      "PRIMARY",
      "M",
      "ND",
      "NORM",
      "MOSAIC"
    ],
    "ImagingFrequency": 123.214,
    "InPlanePhaseEncodingDirectionDICOM": "COL",
    "InstitutionAddress": "Kopernikusstr._26_Graz_Graz_AT_8010",
    "InstitutionName": "KFU",
    "InstitutionalDepartmentName": "Department",
    "MRAcquisitionType": "2D",
    "MagneticFieldStrength": 3,
    "Manufacturer": "Siemens",
    "ManufacturersModelName": "Skyra",
    "Modality": "MR",
    "PartialFourier": 1,
    "PatientPosition": "HFS",
    "PercentPhaseFOV": 100,
    "PhaseEncodingDirection": "j-",
    "PhaseEncodingSteps": 64,
    "PhaseResolution": 1,
    "PixelBandwidth": 1700,
    "ProcedureStepDescription": "KFU_Entw-Psy",
    "ProtocolName": "fMRI_1",
    "PulseSequenceDetails": "%SiemensSeq%_ep2d_pace",
    "ReceiveCoilActiveElements": "HE1-4",
    "ReceiveCoilName": "HeadNeck_20",
    "ReconMatrixPE": 64,
    "RepetitionTime": 2.34,
    "SAR": 0.189005,
    "ScanOptions": "FS",
    "ScanningSequence": "EP",
    "SequenceName": "_epfid2d1_64",
    "SequenceVariant": "SK",
    "SeriesDescription": "fMRI_1",
    "SeriesNumber": 2,
    "ShimSetting": [
      -1575,
      -3661,
      -4384,
      253,
      471,
      29,
      160,
      -264
    ],
    "SliceThickness": 3,
    "SliceTiming": [
      2.2525,
      2.1825,
      2.115,
      2.0475,
      1.9775,
      1.91,
      1.8425,
      1.775,
      1.705,
      1.6375,
      1.57,
      1.5,
      1.4325,
      1.365,
      1.2975,
      1.2275,
      1.16,
      1.0925,
      1.0225,
      0.955,
      0.8875,
      0.82,
      0.75,
      0.6825,
      0.615,
      0.545,
      0.4775,
      0.41,
      0.34,
      0.2725,
      0.205,
      0.1375,
      0.0675,
      0
    ],
    "SoftwareVersions": "syngo_MR_D13",
    "SpacingBetweenSlices": 3.3,
    "StationName": "FBMTMR1",
    "TaskName": "read",
    "TotalReadoutTime": 0.0409508,
    "TxRefAmp": 398.938,
    "dataset": "ds003126",
    "dcmmeta_affine": [
      [
        -2.999406099319458,
        0.04711839184165001,
        -0.04030996188521385,
        95.37779235839844
      ],
      [
        0.04775424674153328,
        2.9991629123687744,
        -0.05759294331073761,
        -113.20491790771484
      ],
      [
        -0.0358128659427166,
        0.05293017998337746,
        3.2992513179779053,
        -14.808323860168457
      ],
      [
        0.0,
        0.0,
        0.0,
        1.0
      ]
    ],
    "dcmmeta_reorient_transform": [
      [
        0.0,
        -1.0,
        0.0,
        63.0
      ],
      [
        1.0,
        0.0,
        0.0,
        0.0
      ],
      [
        0.0,
        0.0,
        1.0,
        0.0
      ],
      [
        0.0,
        0.0,
        0.0,
        1.0
      ]
    ],
    "dcmmeta_shape": [
      64,
      64,
      34,
      128
    ],
    "dcmmeta_slice_dim": 2,
    "dcmmeta_version": 0.6,
    "global": {
      "const": {
        "AcquisitionMatrix": [
          64,
          0,
          0,
          64
        ],
        "AngioFlag": "N",
        "BitsAllocated": 16,
        "BitsStored": 12,
        "BodyPartExamined": "HEAD",
        "Columns": 384,
        "EchoNumbers": 1,
        "EchoTime": 33.0,
        "EchoTrainLength": 64,
        "FlipAngle": 90.0,
        "HighBit": 11,
        "ImageOrientationPatient": [
          0.99980203431597,
          -0.0159180827162,
          -0.0119376220537,
          0.0157061302871,
          0.99972097514143,
          -0.0176433934853
        ],
        "ImagePositionPatient": [
          -585.7901712972,
          -547.96773204339,
          2.7251645461291
        ],
        "ImageType": [
          "ORIGINAL",
          "PRIMARY",
          "M",
          "ND",
          "NORM",
          "MOSAIC"
        ],
        "ImagedNucleus": "1H",
        "ImagingFrequency": 123.214313,
        "InPlanePhaseEncodingDirection": "COL",
        "MRAcquisitionType": "2D",
        "MagneticFieldStrength": 3.0,
        "Manufacturer": "SIEMENS",
        "ManufacturerModelName": "Skyra",
        "Modality": "MR",
        "NumberOfAverages": 1.0,
        "NumberOfPhaseEncodingSteps": 64,
        "PercentPhaseFieldOfView": 100.0,
        "PercentSampling": 100.0,
        "PerformedProcedureStepStartTime": "120554.069000",
        "PhotometricInterpretation": "MONOCHROME2",
        "PixelBandwidth": 1700.0,
        "PixelRepresentation": 0,
        "PixelSpacing": [
          3.0,
          3.0
        ],
        "ProtocolName": "fMRI_1",
        "RepetitionTime": 2340.0,
        "Rows": 384,
        "SAR": 0.18900523022853,
        "SamplesPerPixel": 1,
        "ScanOptions": "FS",
        "ScanningSequence": "EP",
        "SequenceName": "*epfid2d1_64",
        "SequenceVariant": "SK",
        "SeriesDescription": "fMRI_1",
        "SeriesNumber": 2,
        "SeriesTime": "120900.883000",
        "SliceLocation": -13.994318704951,
        "SliceThickness": 3.0,
        "SmallestImagePixelValue": 0,
        "SoftwareVersions": "syngo MR D13",
        "SpacingBetweenSlices": 3.3000000865783,
        "SpecificCharacterSet": "ISO_IR 100",
        "StudyID": "1",
        "StudyTime": "120554.006000",
        "TransmitCoilName": "Body",
        "VariableFlipAngleFlag": "N",
        "WindowCenterWidthExplanation": "Algo1",
        "dBdt": 0.0
      },
      "slices": {}
    },
    "modality": "bold",
    "run_id": 1,
    "session_id": "2",
    "subject_id": "047EPKL011041",
    "task_id": "read",
    "time": {
      "samples": {
        "AcquisitionNumber": [
          1,
          2,
          3,
          4,
          5,
          6,
          7,
          8,
          9,
          10,
          11,
          12,
          13,
          14,
          15,
          16,
          17,
          18,
          19,
          20,
          21,
          22,
          23,
          24,
          25,
          26,
          27,
          28,
          29,
          30,
          31,
          32,
          33,
          34,
          35,
          36,
          37,
          38,
          39,
          40,
          41,
          42,
          43,
          44,
          45,
          46,
          47,
          48,
          49,
          50,
          51,
          52,
          53,
          54,
          55,
          56,
          57,
          58,
          59,
          60,
          61,
          62,
          63,
          64,
          65,
          66,
          67,
          68,
          69,
          70,
          71,
          72,
          73,
          74,
          75,
          76,
          77,
          78,
          79,
          80,
          81,
          82,
          83,
          84,
          85,
          86,
          87,
          88,
          89,
          90,
          91,
          92,
          93,
          94,
          95,
          96,
          97,
          98,
          99,
          100,
          101,
          102,
          103,
          104,
          105,
          106,
          107,
          108,
          109,
          110,
          111,
          112,
          113,
          114,
          115,
          116,
          117,
          118,
          119,
          120,
          121,
          122,
          123,
          124,
          125,
          126,
          127,
          128
        ],
        "AcquisitionTime": [
          "120808.707500",
          "120811.047500",
          "120813.387500",
          "120815.727500",
          "120818.067500",
          "120820.407500",
          "120822.747500",
          "120825.087500",
          "120827.427500",
          "120829.767500",
          "120832.107500",
          "120834.447500",
          "120836.787500",
          "120839.127500",
          "120841.467500",
          "120843.807500",
          "120846.147500",
          "120848.487500",
          "120850.827500",
          "120853.167500",
          "120855.507500",
          "120857.847500",
          "120900.187500",
          "120902.527500",
          "120904.867500",
          "120907.207500",
          "120909.547500",
          "120911.887500",
          "120914.227500",
          "120916.567500",
          "120918.907500",
          "120921.247500",
          "120923.587500",
          "120925.927500",
          "120928.267500",
          "120930.607500",
          "120932.947500",
          "120935.287500",
          "120937.627500",
          "120939.967500",
          "120942.307500",
          "120944.647500",
          "120946.987500",
          "120949.327500",
          "120951.667500",
          "120954.007500",
          "120956.347500",
          "120958.687500",
          "121001.027500",
          "121003.367500",
          "121005.707500",
          "121008.047500",
          "121010.387500",
          "121012.727500",
          "121015.067500",
          "121017.407500",
          "121019.747500",
          "121022.087500",
          "121024.427500",
          "121026.767500",
          "121029.107500",
          "121031.447500",
          "121033.787500",
          "121036.127500",
          "121038.467500",
          "121040.807500",
          "121043.147500",
          "121045.487500",
          "121047.827500",
          "121050.167500",
          "121052.507500",
          "121054.847500",
          "121057.187500",
          "121059.527500",
          "121101.867500",
          "121104.207500",
          "121106.547500",
          "121108.887500",
          "121111.227500",
          "121113.567500",
          "121115.907500",
          "121118.247500",
          "121120.587500",
          "121122.927500",
          "121125.267500",
          "121127.607500",
          "121129.947500",
          "121132.287500",
          "121134.627500",
          "121136.967500",
          "121139.307500",
          "121141.647500",
          "121143.987500",
          "121146.327500",
          "121148.667500",
          "121151.007500",
          "121153.347500",
          "121155.687500",
          "121158.027500",
          "121200.367500",
          "121202.707500",
          "121205.047500",
          "121207.387500",
          "121209.727500",
          "121212.067500",
          "121214.407500",
          "121216.747500",
          "121219.087500",
          "121221.427500",
          "121223.767500",
          "121226.107500",
          "121228.447500",
          "121230.787500",
          "121233.127500",
          "121235.467500",
          "121237.807500",
          "121240.147500",
          "121242.487500",
          "121244.827500",
          "121247.167500",
          "121249.507500",
          "121251.847500",
          "121254.187500",
          "121256.527500",
          "121258.867500",
          "121301.207500",
          "121303.547500",
          "121305.887500"
        ],
        "ContentTime": [
          "120900.888000",
          "120900.892000",
          "120900.899000",
          "120900.902000",
          "120900.905000",
          "120900.908000",
          "120900.911000",
          "120900.914000",
          "120900.916000",
          "120900.919000",
          "120900.922000",
          "120900.925000",
          "120900.928000",
          "120900.931000",
          "120900.934000",
          "120900.937000",
          "120900.940000",
          "120900.942000",
          "120900.945000",
          "120900.948000",
          "120900.951000",
          "120900.954000",
          "120900.957000",
          "121000.883000",
          "121000.886000",
          "121000.889000",
          "121000.898000",
          "121000.901000",
          "121000.903000",
          "121000.906000",
          "121000.909000",
          "121000.912000",
          "121000.914000",
          "121000.917000",
          "121000.920000",
          "121000.923000",
          "121000.926000",
          "121000.928000",
          "121000.931000",
          "121000.934000",
          "121000.937000",
          "121000.939000",
          "121000.942000",
          "121000.945000",
          "121000.947000",
          "121000.950000",
          "121000.953000",
          "121000.955000",
          "121100.882000",
          "121100.891000",
          "121100.894000",
          "121100.897000",
          "121100.899000",
          "121100.902000",
          "121100.905000",
          "121100.908000",
          "121100.910000",
          "121100.913000",
          "121100.916000",
          "121100.918000",
          "121100.921000",
          "121100.923000",
          "121100.926000",
          "121100.929000",
          "121100.932000",
          "121100.935000",
          "121100.937000",
          "121100.940000",
          "121100.943000",
          "121100.946000",
          "121100.948000",
          "121100.951000",
          "121100.954000",
          "121100.957000",
          "121200.882000",
          "121200.892000",
          "121200.895000",
          "121200.898000",
          "121200.900000",
          "121200.904000",
          "121200.906000",
          "121200.910000",
          "121200.914000",
          "121200.917000",
          "121200.920000",
          "121200.923000",
          "121200.926000",
          "121200.929000",
          "121200.931000",
          "121200.934000",
          "121200.937000",
          "121200.940000",
          "121200.943000",
          "121200.945000",
          "121200.948000",
          "121200.951000",
          "121200.954000",
          "121200.956000",
          "121200.959000",
          "121300.882000",
          "121300.885000",
          "121300.888000",
          "121300.891000",
          "121300.893000",
          "121300.896000",
          "121300.899000",
          "121300.901000",
          "121300.904000",
          "121300.906000",
          "121300.909000",
          "121300.912000",
          "121300.915000",
          "121300.917000",
          "121300.920000",
          "121300.923000",
          "121300.925000",
          "121300.939000",
          "121300.942000",
          "121300.945000",
          "121300.947000",
          "121300.950000",
          "121300.953000",
          "121300.955000",
          "121300.958000",
          "121300.961000",
          "121308.254000",
          "121308.257000",
          "121308.260000"
        ],
        "InstanceCreationTime": [
          "120900.888000",
          "120900.892000",
          "120900.899000",
          "120900.902000",
          "120900.905000",
          "120900.908000",
          "120900.911000",
          "120900.914000",
          "120900.916000",
          "120900.919000",
          "120900.922000",
          "120900.925000",
          "120900.928000",
          "120900.931000",
          "120900.934000",
          "120900.937000",
          "120900.940000",
          "120900.942000",
          "120900.945000",
          "120900.948000",
          "120900.951000",
          "120900.954000",
          "120900.957000",
          "121000.883000",
          "121000.886000",
          "121000.889000",
          "121000.898000",
          "121000.901000",
          "121000.903000",
          "121000.906000",
          "121000.909000",
          "121000.912000",
          "121000.914000",
          "121000.917000",
          "121000.920000",
          "121000.923000",
          "121000.926000",
          "121000.928000",
          "121000.931000",
          "121000.934000",
          "121000.937000",
          "121000.939000",
          "121000.942000",
          "121000.945000",
          "121000.947000",
          "121000.950000",
          "121000.953000",
          "121000.955000",
          "121100.882000",
          "121100.891000",
          "121100.894000",
          "121100.897000",
          "121100.899000",
          "121100.902000",
          "121100.905000",
          "121100.908000",
          "121100.910000",
          "121100.913000",
          "121100.916000",
          "121100.918000",
          "121100.921000",
          "121100.923000",
          "121100.926000",
          "121100.929000",
          "121100.932000",
          "121100.935000",
          "121100.937000",
          "121100.940000",
          "121100.943000",
          "121100.946000",
          "121100.948000",
          "121100.951000",
          "121100.954000",
          "121100.957000",
          "121200.882000",
          "121200.892000",
          "121200.895000",
          "121200.898000",
          "121200.900000",
          "121200.904000",
          "121200.906000",
          "121200.910000",
          "121200.914000",
          "121200.917000",
          "121200.920000",
          "121200.923000",
          "121200.926000",
          "121200.929000",
          "121200.931000",
          "121200.934000",
          "121200.937000",
          "121200.940000",
          "121200.943000",
          "121200.945000",
          "121200.948000",
          "121200.951000",
          "121200.954000",
          "121200.956000",
          "121200.959000",
          "121300.882000",
          "121300.885000",
          "121300.888000",
          "121300.891000",
          "121300.893000",
          "121300.896000",
          "121300.899000",
          "121300.901000",
          "121300.904000",
          "121300.906000",
          "121300.909000",
          "121300.912000",
          "121300.915000",
          "121300.917000",
          "121300.920000",
          "121300.923000",
          "121300.925000",
          "121300.939000",
          "121300.942000",
          "121300.945000",
          "121300.947000",
          "121300.950000",
          "121300.953000",
          "121300.955000",
          "121300.958000",
          "121300.961000",
          "121308.254000",
          "121308.257000",
          "121308.260000"
        ],
        "InstanceNumber": [
          1,
          2,
          3,
          4,
          5,
          6,
          7,
          8,
          9,
          10,
          11,
          12,
          13,
          14,
          15,
          16,
          17,
          18,
          19,
          20,
          21,
          22,
          23,
          24,
          25,
          26,
          27,
          28,
          29,
          30,
          31,
          32,
          33,
          34,
          35,
          36,
          37,
          38,
          39,
          40,
          41,
          42,
          43,
          44,
          45,
          46,
          47,
          48,
          49,
          50,
          51,
          52,
          53,
          54,
          55,
          56,
          57,
          58,
          59,
          60,
          61,
          62,
          63,
          64,
          65,
          66,
          67,
          68,
          69,
          70,
          71,
          72,
          73,
          74,
          75,
          76,
          77,
          78,
          79,
          80,
          81,
          82,
          83,
          84,
          85,
          86,
          87,
          88,
          89,
          90,
          91,
          92,
          93,
          94,
          95,
          96,
          97,
          98,
          99,
          100,
          101,
          102,
          103,
          104,
          105,
          106,
          107,
          108,
          109,
          110,
          111,
          112,
          113,
          114,
          115,
          116,
          117,
          118,
          119,
          120,
          121,
          122,
          123,
          124,
          125,
          126,
          127,
          128
        ],
        "LargestImagePixelValue": [
          2333,
          1705,
          2189,
          2206,
          2136,
          2001,
          2216,
          1758,
          1740,
          1767,
          1755,
          2046,
          1699,
          1714,
          1852,
          1717,
          1862,
          1843,
          1666,
          1939,
          2031,
          1728,
          1698,
          1743,
          2091,
          1815,
          2005,
          1748,
          2151,
          1937,
          1848,
          2177,
          1777,
          1691,
          1667,
          2178,
          1748,
          1753,
          2280,
          1786,
          2009,
          1674,
          1745,
          2134,
          1922,
          1701,
          2240,
          1733,
          2423,
          1772,
          1942,
          1982,
          2096,
          1606,
          1657,
          2123,
          1720,
          1743,
          2011,
          1779,
          1930,
          1895,
          2341,
          1637,
          2027,
          1888,
          1701,
          2505,
          1765,
          1685,
          1954,
          1819,
          1726,
          1968,
          1650,
          1696,
          2107,
          2556,
          1582,
          1997,
          1770,
          1684,
          1906,
          1836,
          1675,
          2032,
          1638,
          2163,
          2038,
          1964,
          1792,
          2238,
          1640,
          1693,
          2036,
          1815,
          1669,
          2357,
          2141,
          1606,
          1898,
          1710,
          2058,
          1780,
          1751,
          2011,
          1728,
          1647,
          1910,
          2116,
          1725,
          1974,
          1678,
          2064,
          2221,
          1736,
          1721,
          1703,
          2029,
          2278,
          1804,
          1653,
          2282,
          1662,
          1665,
          2036,
          1701,
          2115
        ],
        "WindowCenter": [
          788.0,
          787.0,
          787.0,
          785.0,
          790.0,
          786.0,
          785.0,
          788.0,
          787.0,
          787.0,
          787.0,
          789.0,
          787.0,
          790.0,
          788.0,
          790.0,
          791.0,
          793.0,
          790.0,
          792.0,
          790.0,
          791.0,
          788.0,
          788.0,
          789.0,
          789.0,
          789.0,
          790.0,
          790.0,
          787.0,
          787.0,
          790.0,
          790.0,
          792.0,
          788.0,
          790.0,
          785.0,
          790.0,
          790.0,
          789.0,
          791.0,
          792.0,
          790.0,
          791.0,
          789.0,
          789.0,
          791.0,
          788.0,
          790.0,
          790.0,
          789.0,
          789.0,
          789.0,
          787.0,
          789.0,
          790.0,
          789.0,
          795.0,
          790.0,
          791.0,
          790.0,
          791.0,
          791.0,
          787.0,
          792.0,
          794.0,
          789.0,
          792.0,
          787.0,
          791.0,
          790.0,
          792.0,
          791.0,
          792.0,
          790.0,
          792.0,
          791.0,
          792.0,
          787.0,
          794.0,
          790.0,
          790.0,
          789.0,
          789.0,
          789.0,
          791.0,
          787.0,
          791.0,
          791.0,
          789.0,
          790.0,
          792.0,
          791.0,
          794.0,
          792.0,
          791.0,
          788.0,
          791.0,
          794.0,
          791.0,
          792.0,
          791.0,
          793.0,
          790.0,
          792.0,
          795.0,
          790.0,
          792.0,
          793.0,
          795.0,
          791.0,
          794.0,
          791.0,
          794.0,
          792.0,
          792.0,
          793.0,
          796.0,
          792.0,
          791.0,
          791.0,
          792.0,
          795.0,
          791.0,
          793.0,
          794.0,
          792.0,
          794.0
        ],
        "WindowWidth": [
          1647.0,
          1644.0,
          1643.0,
          1639.0,
          1647.0,
          1641.0,
          1640.0,
          1645.0,
          1644.0,
          1645.0,
          1646.0,
          1652.0,
          1642.0,
          1653.0,
          1649.0,
          1651.0,
          1653.0,
          1660.0,
          1653.0,
          1655.0,
          1654.0,
          1655.0,
          1649.0,
          1649.0,
          1652.0,
          1648.0,
          1649.0,
          1653.0,
          1652.0,
          1643.0,
          1644.0,
          1653.0,
          1652.0,
          1659.0,
          1647.0,
          1653.0,
          1640.0,
          1653.0,
          1652.0,
          1647.0,
          1653.0,
          1657.0,
          1651.0,
          1655.0,
          1648.0,
          1650.0,
          1654.0,
          1645.0,
          1653.0,
          1651.0,
          1649.0,
          1648.0,
          1651.0,
          1643.0,
          1649.0,
          1654.0,
          1646.0,
          1664.0,
          1656.0,
          1653.0,
          1651.0,
          1655.0,
          1655.0,
          1643.0,
          1655.0,
          1660.0,
          1650.0,
          1658.0,
          1643.0,
          1655.0,
          1655.0,
          1654.0,
          1653.0,
          1659.0,
          1651.0,
          1657.0,
          1656.0,
          1657.0,
          1642.0,
          1663.0,
          1650.0,
          1653.0,
          1654.0,
          1649.0,
          1647.0,
          1655.0,
          1643.0,
          1654.0,
          1652.0,
          1650.0,
          1651.0,
          1660.0,
          1653.0,
          1660.0,
          1658.0,
          1652.0,
          1646.0,
          1655.0,
          1660.0,
          1654.0,
          1656.0,
          1653.0,
          1660.0,
          1652.0,
          1656.0,
          1666.0,
          1651.0,
          1657.0,
          1661.0,
          1662.0,
          1654.0,
          1664.0,
          1654.0,
          1659.0,
          1659.0,
          1655.0,
          1657.0,
          1668.0,
          1659.0,
          1655.0,
          1653.0,
          1657.0,
          1665.0,
          1654.0,
          1658.0,
          1661.0,
          1656.0,
          1661.0
        ]
      },
      "slices": {}
    }
  },
  "dummy_trs": 0,
  "dvars_nstd": 46.334802867952774,
  "dvars_std": 1.2558236636220468,
  "dvars_vstd": 1.012721988503937,
  "efc": 0.5961997935600304,
  "fber": 1360.4337158203125,
  "fd_mean": 0.7535956132713096,
  "fd_num": 119,
  "fd_perc": 92.96875,
  "fwhm_avg": 1.7698246142151604,
  "fwhm_x": 1.6170099999999998,
  "fwhm_y": 2.01857,
  "fwhm_z": 1.673893842645481,
  "gcor": 0.0419813,
  "gsr_x": -0.011246147565543652,
  "gsr_y": 0.06021055206656456,
  "provenance": {
    "md5sum": "290b1daa95504a69fba26803d2503923",
    "settings": {
      "fd_thres": 0.2,
      "testing": false
    },
    "software": "mriqc",
    "version": "22.0.1",
    "webapi_port": null,
    "webapi_url": "https://mriqc.nimh.nih.gov/api/v1"
  },
  "size_t": 128,
  "size_x": 64,
  "size_y": 64,
  "size_z": 34,
  "snr": 6.4569998345046145,
  "spacing_tr": 2.3399999141693115,
  "spacing_x": 3.0,
  "spacing_y": 3.0,
  "spacing_z": 3.3000001907348633,
  "summary_bg_k": 34.860503506979725,
  "summary_bg_mad": 8.802950672377012,
  "summary_bg_mean": 44.083343505859375,
  "summary_bg_median": 22.8984375,
  "summary_bg_n": 69519.0,
  "summary_bg_p05": 14.0625,
  "summary_bg_p95": 135.8515625,
  "summary_bg_stdv": 75.24479675292969,
  "summary_fg_k": 1.843834675249009,
  "summary_fg_mad": 132.25275102263254,
  "summary_fg_mean": 867.2947998046875,
  "summary_fg_median": 865.23828125,
  "summary_fg_n": 36874.0,
  "summary_fg_p05": 664.090625,
  "summary_fg_p95": 1072.8703125,
  "summary_fg_stdv": 133.99822998046875,
  "tsnr": 43.92314506554976
}