{
  "aor": 0.0021129457364341083,
  "aqi": 0.010684038682170544,
  "bids_meta": {
    "AcquisitionMatrixPE": 64,
    "AcquisitionNumber": 1,
    "AcquisitionTime": "13:49:29.425000",
    "BandwidthPerPixelPhaseEncode": 24.038,
    "BaseResolution": 64,
    "BodyPartExamined": "HEAD",
    "ConsistencyInfo": "N4_VD13A_LATEST_20120616",
    "ConversionSoftware": "dcm2niix",
    "ConversionSoftwareVersion": "v1.0.20181125  GCC6.3.0",
    "DerivedVendorReportedEchoSpacing": 0.000650012,
    "DeviceSerialNumber": "45250",
    "DwellTime": 4.6e-06,
    "EchoTime": 0.033,
    "EchoTrainLength": 64,
    "EffectiveEchoSpacing": 0.000650012,
    "FlipAngle": 90,
    "ImageOrientationPatientDICOM": [
      0.999919,
      -0.00505518,
      -0.0116549,
      0.00349038,
      0.991433,
      -0.130569
    ],
    "ImageType": [
      "ORIGINAL",
      "PRIMARY",
      "M",
      "ND",
      "NORM",
      "MOSAIC"
    ],
    "ImagingFrequency": 123.22,
    "InPlanePhaseEncodingDirectionDICOM": "COL",
    "InstitutionAddress": "Kopernikusstr._26_Graz_Graz_AT_8010",
    "InstitutionName": "KFU",
    "InstitutionalDepartmentName": "Department",
    "MRAcquisitionType": "2D",
    "MagneticFieldStrength": 3,
    "Manufacturer": "Siemens",
    "ManufacturersModelName": "Skyra",
    "Modality": "MR",
    "PartialFourier": 1,
    "PatientPosition": "HFS",
    "PercentPhaseFOV": 100,
    "PhaseEncodingDirection": "j-",
    "PhaseEncodingSteps": 64,
    "PhaseResolution": 1,
    "PixelBandwidth": 1700,
    "ProcedureStepDescription": "KFU_Entw-Psy",
    "ProtocolName": "fMRI_1",
    "PulseSequenceDetails": "%SiemensSeq%_ep2d_pace",
    "ReceiveCoilActiveElements": "HE1-4",
    "ReceiveCoilName": "HeadNeck_20",
    "ReconMatrixPE": 64,
    "RepetitionTime": 2.34,
    "SAR": 0.161298,
    "ScanOptions": "FS",
    "ScanningSequence": "EP",
    "SequenceName": "_epfid2d1_64",
    "SequenceVariant": "SK",
    "SeriesDescription": "fMRI_1",
    "SeriesNumber": 2,
    "ShimSetting": [
      -1618,
      -3730,
      -4141,
      614,
      445,
      97,
      495,
      -251
    ],
    "SliceThickness": 3,
    "SliceTiming": [
      2.25,
      2.1825,
      2.115,
      2.0475,
      1.9775,
      1.91,
      1.8425,
      1.7725,
      1.705,
      1.6375,
      1.57,
      1.5,
      1.4325,
      1.365,
      1.295,
      1.2275,
      1.16,
      1.0925,
      1.0225,
      0.955,
      0.8875,
      0.8175,
      0.75,
      0.6825,
      0.6125,
      0.545,
      0.4775,
      0.41,
      0.34,
      0.2725,
      0.205,
      0.135,
      0.0675,
      0
    ],
    "SoftwareVersions": "syngo_MR_D13",
    "SpacingBetweenSlices": 3.3,
    "StationName": "FBMTMR1",
    "TaskName": "read",
    "TotalReadoutTime": 0.0409508,
    "TxRefAmp": 331.233,
    "dataset": "ds003126",
    "dcmmeta_affine": [
      [
        -2.999758005142212,
        0.010471135377883911,
        -0.04030997306108475,
        96.52511596679688
      ],
      [
        0.015165532939136028,
        2.974299192428589,
        -0.43070855736732483,
        -109.1312255859375
      ],
      [
        -0.034964825958013535,
        0.3917068839073181,
        3.2715234756469727,
        -6.46381139755249
      ],
      [
        0.0,
        0.0,
        0.0,
        1.0
      ]
    ],
    "dcmmeta_reorient_transform": [
      [
        0.0,
        -1.0,
        0.0,
        63.0
      ],
      [
        1.0,
        0.0,
        0.0,
        0.0
      ],
      [
        0.0,
        0.0,
        1.0,
        0.0
      ],
      [
        0.0,
        0.0,
        0.0,
        1.0
      ]
    ],
    "dcmmeta_shape": [
      64,
      64,
      34,
      129
    ],
    "dcmmeta_slice_dim": 2,
    "dcmmeta_version": 0.6,
    "global": {
      "const": {
        "AcquisitionMatrix": [
          64,
          0,
          0,
          64
        ],
        "AngioFlag": "N",
        "BitsAllocated": 16,
        "BitsStored": 12,
        "BodyPartExamined": "HEAD",
        "Columns": 384,
        "EchoNumbers": 1,
        "EchoTime": 33.0,
        "EchoTrainLength": 64,
        "FlipAngle": 90.0,
        "HighBit": 11,
        "ImageOrientationPatient": [
          0.99991930050435,
          -0.005055177536,
          -0.0116549413973,
          0.00349037833869,
          0.99143308574343,
          -0.1305689616728
        ],
        "ImagePositionPatient": [
          -578.82144349942,
          -551.7110233788,
          86.481196039325
        ],
        "ImageType": [
          "ORIGINAL",
          "PRIMARY",
          "M",
          "ND",
          "NORM",
          "MOSAIC"
        ],
        "ImagedNucleus": "1H",
        "ImagingFrequency": 123.219873,
        "InPlanePhaseEncodingDirection": "COL",
        "MRAcquisitionType": "2D",
        "MagneticFieldStrength": 3.0,
        "Manufacturer": "SIEMENS",
        "ManufacturerModelName": "Skyra",
        "Modality": "MR",
        "NumberOfAverages": 1.0,
        "NumberOfPhaseEncodingSteps": 64,
        "PercentPhaseFieldOfView": 100.0,
        "PercentSampling": 100.0,
        "PerformedProcedureStepStartTime": "133911.243000",
        "PhotometricInterpretation": "MONOCHROME2",
        "PixelBandwidth": 1700.0,
        "PixelRepresentation": 0,
        "PixelSpacing": [
          3.0,
          3.0
        ],
        "ProtocolName": "fMRI_1",
        "RepetitionTime": 2340.0,
        "Rows": 384,
        "SAR": 0.16129775261034,
        "SamplesPerPixel": 1,
        "ScanOptions": "FS",
        "ScanningSequence": "EP",
        "SequenceName": "*epfid2d1_64",
        "SequenceVariant": "SK",
        "SeriesDescription": "fMRI_1",
        "SeriesNumber": 2,
        "SeriesTime": "135032.749000",
        "SliceLocation": 6.6564601189927,
        "SliceThickness": 3.0,
        "SmallestImagePixelValue": 0,
        "SoftwareVersions": "syngo MR D13",
        "SpacingBetweenSlices": 3.3000000215216,
        "SpecificCharacterSet": "ISO_IR 100",
        "StudyID": "1",
        "StudyTime": "133911.196000",
        "TransmitCoilName": "Body",
        "VariableFlipAngleFlag": "N",
        "WindowCenterWidthExplanation": "Algo1",
        "dBdt": 0.0
      },
      "slices": {}
    },
    "modality": "bold",
    "run_id": 1,
    "session_id": "2",
    "subject_id": "047EPKL012074",
    "task_id": "read",
    "time": {
      "samples": {
        "AcquisitionNumber": [
          1,
          2,
          3,
          4,
          5,
          6,
          7,
          8,
          9,
          10,
          11,
          12,
          13,
          14,
          15,
          16,
          17,
          18,
          19,
          20,
          21,
          22,
          23,
          24,
          25,
          26,
          27,
          28,
          29,
          30,
          31,
          32,
          33,
          34,
          35,
          36,
          37,
          38,
          39,
          40,
          41,
          42,
          43,
          44,
          45,
          46,
          47,
          48,
          49,
          50,
          51,
          52,
          53,
          54,
          55,
          56,
          57,
          58,
          59,
          60,
          61,
          62,
          63,
          64,
          65,
          66,
          67,
          68,
          69,
          70,
          71,
          72,
          73,
          74,
          75,
          76,
          77,
          78,
          79,
          80,
          81,
          82,
          83,
          84,
          85,
          86,
          87,
          88,
          89,
          90,
          91,
          92,
          93,
          94,
          95,
          96,
          97,
          98,
          99,
          100,
          101,
          102,
          103,
          104,
          105,
          106,
          107,
          108,
          109,
          110,
          111,
          112,
          113,
          114,
          115,
          116,
          117,
          118,
          119,
          120,
          121,
          122,
          123,
          124,
          125,
          126,
          127,
          128,
          129
        ],
        "AcquisitionTime": [
          "134929.425000",
          "134931.765000",
          "134934.105000",
          "134936.445000",
          "134938.785000",
          "134941.125000",
          "134943.465000",
          "134945.805000",
          "134948.145000",
          "134950.485000",
          "134952.825000",
          "134955.165000",
          "134957.505000",
          "134959.845000",
          "135002.185000",
          "135004.525000",
          "135006.865000",
          "135009.205000",
          "135011.545000",
          "135013.885000",
          "135016.225000",
          "135018.565000",
          "135020.905000",
          "135023.245000",
          "135025.585000",
          "135027.925000",
          "135030.265000",
          "135032.605000",
          "135034.945000",
          "135037.285000",
          "135039.625000",
          "135041.965000",
          "135044.305000",
          "135046.645000",
          "135048.985000",
          "135051.325000",
          "135053.665000",
          "135056.005000",
          "135058.345000",
          "135100.685000",
          "135103.025000",
          "135105.365000",
          "135107.705000",
          "135110.045000",
          "135112.385000",
          "135114.725000",
          "135117.065000",
          "135119.405000",
          "135121.745000",
          "135124.085000",
          "135126.425000",
          "135128.765000",
          "135131.105000",
          "135133.445000",
          "135135.785000",
          "135138.125000",
          "135140.465000",
          "135142.805000",
          "135145.145000",
          "135147.485000",
          "135149.825000",
          "135152.165000",
          "135154.505000",
          "135156.845000",
          "135159.185000",
          "135201.525000",
          "135203.865000",
          "135206.205000",
          "135208.545000",
          "135210.885000",
          "135213.225000",
          "135215.565000",
          "135217.905000",
          "135220.245000",
          "135222.585000",
          "135224.925000",
          "135227.265000",
          "135229.605000",
          "135231.945000",
          "135234.285000",
          "135236.625000",
          "135238.965000",
          "135241.305000",
          "135243.645000",
          "135245.985000",
          "135248.325000",
          "135250.665000",
          "135253.005000",
          "135255.345000",
          "135257.685000",
          "135300.025000",
          "135302.365000",
          "135304.705000",
          "135307.045000",
          "135309.385000",
          "135311.725000",
          "135314.065000",
          "135316.405000",
          "135318.745000",
          "135321.085000",
          "135323.425000",
          "135325.765000",
          "135328.105000",
          "135330.445000",
          "135332.785000",
          "135335.125000",
          "135337.465000",
          "135339.805000",
          "135342.145000",
          "135344.485000",
          "135346.825000",
          "135349.165000",
          "135351.505000",
          "135353.845000",
          "135356.185000",
          "135358.525000",
          "135400.865000",
          "135403.205000",
          "135405.545000",
          "135407.885000",
          "135410.225000",
          "135412.565000",
          "135414.905000",
          "135417.245000",
          "135419.585000",
          "135421.925000",
          "135424.265000",
          "135426.605000",
          "135428.945000"
        ],
        "ContentTime": [
          "135032.753000",
          "135032.757000",
          "135032.769000",
          "135032.771000",
          "135032.774000",
          "135032.777000",
          "135032.780000",
          "135032.782000",
          "135032.785000",
          "135032.788000",
          "135032.790000",
          "135032.793000",
          "135032.796000",
          "135032.798000",
          "135032.801000",
          "135032.804000",
          "135032.807000",
          "135032.809000",
          "135032.812000",
          "135032.815000",
          "135032.818000",
          "135032.821000",
          "135032.823000",
          "135032.826000",
          "135032.829000",
          "135032.832000",
          "135032.834000",
          "135132.746000",
          "135132.750000",
          "135132.752000",
          "135132.762000",
          "135132.765000",
          "135132.768000",
          "135132.770000",
          "135132.773000",
          "135132.776000",
          "135132.779000",
          "135132.781000",
          "135132.784000",
          "135132.787000",
          "135132.790000",
          "135132.797000",
          "135132.800000",
          "135132.803000",
          "135132.806000",
          "135132.808000",
          "135132.811000",
          "135132.814000",
          "135132.816000",
          "135132.819000",
          "135132.822000",
          "135132.825000",
          "135132.827000",
          "135232.747000",
          "135232.750000",
          "135232.753000",
          "135232.756000",
          "135232.758000",
          "135232.761000",
          "135232.764000",
          "135232.767000",
          "135232.770000",
          "135232.772000",
          "135232.775000",
          "135232.778000",
          "135232.785000",
          "135232.787000",
          "135232.790000",
          "135232.793000",
          "135232.796000",
          "135232.798000",
          "135232.801000",
          "135232.804000",
          "135232.806000",
          "135232.809000",
          "135232.812000",
          "135232.814000",
          "135232.817000",
          "135232.819000",
          "135332.748000",
          "135332.752000",
          "135332.754000",
          "135332.765000",
          "135332.768000",
          "135332.771000",
          "135332.773000",
          "135332.777000",
          "135332.779000",
          "135332.787000",
          "135332.790000",
          "135332.793000",
          "135332.795000",
          "135332.798000",
          "135332.801000",
          "135332.804000",
          "135332.806000",
          "135332.809000",
          "135332.812000",
          "135332.815000",
          "135332.818000",
          "135332.820000",
          "135332.823000",
          "135332.826000",
          "135332.828000",
          "135430.327000",
          "135430.330000",
          "135430.333000",
          "135430.336000",
          "135430.339000",
          "135430.343000",
          "135430.346000",
          "135430.365000",
          "135430.368000",
          "135430.371000",
          "135430.375000",
          "135430.378000",
          "135430.381000",
          "135430.384000",
          "135430.388000",
          "135430.391000",
          "135430.394000",
          "135430.397000",
          "135430.401000",
          "135430.405000",
          "135430.409000",
          "135430.413000",
          "135430.417000",
          "135430.422000",
          "135430.427000"
        ],
        "InstanceCreationTime": [
          "135032.753000",
          "135032.757000",
          "135032.769000",
          "135032.771000",
          "135032.774000",
          "135032.777000",
          "135032.780000",
          "135032.782000",
          "135032.785000",
          "135032.788000",
          "135032.790000",
          "135032.793000",
          "135032.796000",
          "135032.798000",
          "135032.801000",
          "135032.804000",
          "135032.807000",
          "135032.809000",
          "135032.812000",
          "135032.815000",
          "135032.818000",
          "135032.821000",
          "135032.823000",
          "135032.826000",
          "135032.829000",
          "135032.832000",
          "135032.834000",
          "135132.746000",
          "135132.750000",
          "135132.752000",
          "135132.762000",
          "135132.765000",
          "135132.768000",
          "135132.770000",
          "135132.773000",
          "135132.776000",
          "135132.779000",
          "135132.781000",
          "135132.784000",
          "135132.787000",
          "135132.790000",
          "135132.797000",
          "135132.800000",
          "135132.803000",
          "135132.806000",
          "135132.808000",
          "135132.811000",
          "135132.814000",
          "135132.816000",
          "135132.819000",
          "135132.822000",
          "135132.825000",
          "135132.827000",
          "135232.747000",
          "135232.750000",
          "135232.753000",
          "135232.756000",
          "135232.758000",
          "135232.761000",
          "135232.764000",
          "135232.767000",
          "135232.770000",
          "135232.772000",
          "135232.775000",
          "135232.778000",
          "135232.785000",
          "135232.787000",
          "135232.790000",
          "135232.793000",
          "135232.796000",
          "135232.798000",
          "135232.801000",
          "135232.804000",
          "135232.806000",
          "135232.809000",
          "135232.812000",
          "135232.814000",
          "135232.817000",
          "135232.819000",
          "135332.748000",
          "135332.752000",
          "135332.754000",
          "135332.765000",
          "135332.768000",
          "135332.771000",
          "135332.773000",
          "135332.777000",
          "135332.779000",
          "135332.787000",
          "135332.790000",
          "135332.793000",
          "135332.795000",
          "135332.798000",
          "135332.801000",
          "135332.804000",
          "135332.806000",
          "135332.809000",
          "135332.812000",
          "135332.815000",
          "135332.818000",
          "135332.820000",
          "135332.823000",
          "135332.826000",
          "135332.828000",
          "135430.327000",
          "135430.330000",
          "135430.333000",
          "135430.336000",
          "135430.339000",
          "135430.343000",
          "135430.346000",
          "135430.365000",
          "135430.368000",
          "135430.371000",
          "135430.375000",
          "135430.378000",
          "135430.381000",
          "135430.384000",
          "135430.388000",
          "135430.391000",
          "135430.394000",
          "135430.397000",
          "135430.401000",
          "135430.405000",
          "135430.409000",
          "135430.413000",
          "135430.417000",
          "135430.422000",
          "135430.427000"
        ],
        "InstanceNumber": [
          1,
          2,
          3,
          4,
          5,
          6,
          7,
          8,
          9,
          10,
          11,
          12,
          13,
          14,
          15,
          16,
          17,
          18,
          19,
          20,
          21,
          22,
          23,
          24,
          25,
          26,
          27,
          28,
          29,
          30,
          31,
          32,
          33,
          34,
          35,
          36,
          37,
          38,
          39,
          40,
          41,
          42,
          43,
          44,
          45,
          46,
          47,
          48,
          49,
          50,
          51,
          52,
          53,
          54,
          55,
          56,
          57,
          58,
          59,
          60,
          61,
          62,
          63,
          64,
          65,
          66,
          67,
          68,
          69,
          70,
          71,
          72,
          73,
          74,
          75,
          76,
          77,
          78,
          79,
          80,
          81,
          82,
          83,
          84,
          85,
          86,
          87,
          88,
          89,
          90,
          91,
          92,
          93,
          94,
          95,
          96,
          97,
          98,
          99,
          100,
          101,
          102,
          103,
          104,
          105,
          106,
          107,
          108,
          109,
          110,
          111,
          112,
          113,
          114,
          115,
          116,
          117,
          118,
          119,
          120,
          121,
          122,
          123,
          124,
          125,
          126,
          127,
          128,
          129
        ],
        "LargestImagePixelValue": [
          3207,
          2857,
          3295,
          2158,
          2406,
          2419,
          2474,
          3235,
          2238,
          2412,
          2426,
          2918,
          3497,
          2222,
          2997,
          2217,
          2567,
          3073,
          3466,
          3209,
          2630,
          2612,
          2300,
          2753,
          2600,
          2287,
          2433,
          2128,
          2846,
          3250,
          2935,
          2474,
          3263,
          2308,
          2404,
          3202,
          2419,
          3211,
          2181,
          1913,
          2208,
          3600,
          2374,
          2236,
          2542,
          2519,
          2612,
          2431,
          3709,
          2445,
          3279,
          2065,
          2785,
          3040,
          2169,
          3181,
          2607,
          2077,
          2456,
          3352,
          2344,
          3202,
          2531,
          2348,
          3600,
          2324,
          2453,
          2905,
          2203,
          2227,
          2892,
          2125,
          3364,
          2248,
          3044,
          2261,
          3491,
          2282,
          2448,
          2882,
          2003,
          3232,
          2367,
          3465,
          2127,
          2471,
          2829,
          3591,
          2612,
          2306,
          2910,
          2943,
          2172,
          2094,
          2544,
          2312,
          2993,
          2191,
          3473,
          2226,
          2909,
          2297,
          2667,
          2135,
          3352,
          3001,
          2326,
          3329,
          2901,
          2285,
          2448,
          2800,
          2595,
          3142,
          2834,
          2498,
          2949,
          2338,
          2692,
          2945,
          3117,
          2729,
          2918,
          2271,
          2698,
          2391,
          2814,
          2120,
          2023
        ],
        "WindowCenter": [
          851.0,
          849.0,
          849.0,
          848.0,
          851.0,
          850.0,
          852.0,
          851.0,
          849.0,
          851.0,
          851.0,
          851.0,
          851.0,
          848.0,
          851.0,
          851.0,
          851.0,
          850.0,
          851.0,
          852.0,
          850.0,
          850.0,
          850.0,
          851.0,
          851.0,
          852.0,
          852.0,
          854.0,
          852.0,
          853.0,
          852.0,
          851.0,
          852.0,
          851.0,
          852.0,
          852.0,
          851.0,
          852.0,
          851.0,
          852.0,
          854.0,
          856.0,
          851.0,
          854.0,
          852.0,
          854.0,
          853.0,
          853.0,
          853.0,
          851.0,
          852.0,
          851.0,
          853.0,
          854.0,
          852.0,
          855.0,
          852.0,
          852.0,
          853.0,
          854.0,
          853.0,
          855.0,
          853.0,
          854.0,
          855.0,
          852.0,
          854.0,
          854.0,
          852.0,
          854.0,
          855.0,
          853.0,
          855.0,
          853.0,
          856.0,
          854.0,
          855.0,
          851.0,
          852.0,
          852.0,
          854.0,
          854.0,
          854.0,
          855.0,
          851.0,
          854.0,
          853.0,
          854.0,
          851.0,
          852.0,
          853.0,
          852.0,
          851.0,
          853.0,
          852.0,
          853.0,
          855.0,
          855.0,
          855.0,
          852.0,
          854.0,
          854.0,
          854.0,
          854.0,
          857.0,
          853.0,
          854.0,
          856.0,
          852.0,
          853.0,
          853.0,
          856.0,
          853.0,
          856.0,
          855.0,
          856.0,
          857.0,
          856.0,
          855.0,
          856.0,
          856.0,
          856.0,
          855.0,
          855.0,
          856.0,
          856.0,
          856.0,
          856.0,
          858.0
        ],
        "WindowWidth": [
          1809.0,
          1805.0,
          1805.0,
          1802.0,
          1807.0,
          1804.0,
          1810.0,
          1807.0,
          1802.0,
          1808.0,
          1806.0,
          1808.0,
          1809.0,
          1799.0,
          1807.0,
          1805.0,
          1807.0,
          1806.0,
          1808.0,
          1811.0,
          1807.0,
          1806.0,
          1805.0,
          1808.0,
          1806.0,
          1807.0,
          1808.0,
          1814.0,
          1813.0,
          1815.0,
          1811.0,
          1808.0,
          1813.0,
          1810.0,
          1810.0,
          1814.0,
          1810.0,
          1813.0,
          1808.0,
          1810.0,
          1817.0,
          1823.0,
          1807.0,
          1817.0,
          1811.0,
          1818.0,
          1814.0,
          1815.0,
          1814.0,
          1808.0,
          1813.0,
          1809.0,
          1816.0,
          1818.0,
          1809.0,
          1820.0,
          1811.0,
          1811.0,
          1813.0,
          1817.0,
          1814.0,
          1820.0,
          1814.0,
          1815.0,
          1820.0,
          1811.0,
          1815.0,
          1817.0,
          1810.0,
          1815.0,
          1818.0,
          1813.0,
          1820.0,
          1814.0,
          1821.0,
          1816.0,
          1819.0,
          1808.0,
          1812.0,
          1814.0,
          1815.0,
          1817.0,
          1815.0,
          1821.0,
          1807.0,
          1817.0,
          1814.0,
          1820.0,
          1809.0,
          1811.0,
          1815.0,
          1811.0,
          1807.0,
          1814.0,
          1811.0,
          1815.0,
          1818.0,
          1817.0,
          1820.0,
          1810.0,
          1816.0,
          1816.0,
          1816.0,
          1816.0,
          1826.0,
          1813.0,
          1816.0,
          1821.0,
          1810.0,
          1812.0,
          1812.0,
          1822.0,
          1814.0,
          1824.0,
          1819.0,
          1823.0,
          1826.0,
          1822.0,
          1820.0,
          1824.0,
          1823.0,
          1821.0,
          1820.0,
          1818.0,
          1821.0,
          1820.0,
          1822.0,
          1821.0,
          1824.0
        ]
      },
      "slices": {}
    }
  },
  "dummy_trs": 0,
  "dvars_nstd": 31.826392248125003,
  "dvars_std": 1.4055025824218748,
  "dvars_vstd": 0.9995001907031252,
  "efc": 0.5877122101194653,
  "fber": 1748.873291015625,
  "fd_mean": 0.2461860863389394,
  "fd_num": 63,
  "fd_perc": 48.83720930232558,
  "fwhm_avg": 1.6157370779290885,
  "fwhm_x": 1.5257433333333335,
  "fwhm_y": 1.8220466666666668,
  "fwhm_z": 1.4994212337872654,
  "gcor": 0.0637388,
  "gsr_x": -0.004234583582729101,
  "gsr_y": 0.04313672333955765,
  "provenance": {
    "md5sum": "93317bfd6fa4d2031c703b8479ab3674",
    "settings": {
      "fd_thres": 0.2,
      "testing": false
    },
    "software": "mriqc",
    "version": "22.0.1",
    "webapi_port": null,
    "webapi_url": "https://mriqc.nimh.nih.gov/api/v1"
  },
  "size_t": 129,
  "size_x": 64,
  "size_y": 64,
  "size_z": 34,
  "snr": 6.909216498039674,
  "spacing_tr": 2.3399999141693115,
  "spacing_x": 3.0,
  "spacing_y": 3.0,
  "spacing_z": 3.299999952316284,
  "summary_bg_k": 49.35204993541082,
  "summary_bg_mad": 10.378215529539213,
  "summary_bg_mean": 36.3619384765625,
  "summary_bg_median": 23.0155029296875,
  "summary_bg_n": 68908.0,
  "summary_bg_p05": 13.193798065185547,
  "summary_bg_p95": 98.5372070312499,
  "summary_bg_stdv": 49.745758056640625,
  "summary_fg_k": 3.2234409716898327,
  "summary_fg_mad": 131.03786600770655,
  "summary_fg_mean": 998.271484375,
  "summary_fg_median": 994.31005859375,
  "summary_fg_n": 36998.0,
  "summary_fg_p05": 793.1461151123046,
  "summary_fg_p95": 1219.0720458984374,
  "summary_fg_stdv": 143.9087371826172,
  "tsnr": 67.06128732603975
}