{
  "aor": 0.01033953125,
  "aqi": 0.0229063984375,
  "bids_meta": {
    "AcquisitionMatrixPE": 64,
    "AcquisitionNumber": 1,
    "AcquisitionTime": "13:12:58.025000",
    "BandwidthPerPixelPhaseEncode": 24.038,
    "BaseResolution": 64,
    "BodyPartExamined": "HEAD",
    "ConsistencyInfo": "N4_VD13A_LATEST_20120616",
    "ConversionSoftware": "dcm2niix",
    "ConversionSoftwareVersion": "v1.0.20181125  GCC6.3.0",
    "DerivedVendorReportedEchoSpacing": 0.000650012,
    "DeviceSerialNumber": "45250",
    "DwellTime": 4.6e-06,
    "EchoTime": 0.033,
    "EchoTrainLength": 64,
    "EffectiveEchoSpacing": 0.000650012,
    "FlipAngle": 90,
    "ImageOrientationPatientDICOM": [
      0.999919,
      -0.00441756,
      -0.0119113,
      0.00349044,
      0.997043,
      -0.0767624
    ],
    "ImageType": [
      "ORIGINAL",
      "PRIMARY",
      "M",
      "ND",
      "NORM",
      "MOSAIC"
    ],
    "ImagingFrequency": 123.22,
    "InPlanePhaseEncodingDirectionDICOM": "COL",
    "InstitutionAddress": "Kopernikusstr._26_Graz_Graz_AT_8010",
    "InstitutionName": "KFU",
    "InstitutionalDepartmentName": "Department",
    "MRAcquisitionType": "2D",
    "MagneticFieldStrength": 3,
    "Manufacturer": "Siemens",
    "ManufacturersModelName": "Skyra",
    "Modality": "MR",
    "PartialFourier": 1,
    "PatientPosition": "HFS",
    "PercentPhaseFOV": 100,
    "PhaseEncodingDirection": "j-",
    "PhaseEncodingSteps": 64,
    "PhaseResolution": 1,
    "PixelBandwidth": 1700,
    "ProcedureStepDescription": "KFU_Entw-Psy",
    "ProtocolName": "fMRI_3",
    "PulseSequenceDetails": "%SiemensSeq%_ep2d_pace",
    "ReceiveCoilActiveElements": "HE1-4",
    "ReceiveCoilName": "HeadNeck_20",
    "ReconMatrixPE": 64,
    "RepetitionTime": 2.34,
    "SAR": 0.157857,
    "ScanOptions": "FS",
    "ScanningSequence": "EP",
    "SequenceName": "_epfid2d1_64",
    "SequenceVariant": "SK",
    "SeriesDescription": "fMRI_3",
    "SeriesNumber": 8,
    "ShimSetting": [
      -1664,
      -3764,
      -4176,
      495,
      468,
      38,
      567,
      -116
    ],
    "SliceThickness": 3,
    "SliceTiming": [
      2.2525,
      2.1825,
      2.115,
      2.0475,
      1.98,
      1.91,
      1.8425,
      1.775,
      1.705,
      1.6375,
      1.57,
      1.5025,
      1.4325,
      1.365,
      1.2975,
      1.2275,
      1.16,
      1.0925,
      1.025,
      0.955,
      0.8875,
      0.82,
      0.75,
      0.6825,
      0.615,
      0.545,
      0.4775,
      0.41,
      0.3425,
      0.2725,
      0.205,
      0.1375,
      0.0675,
      0
    ],
    "SoftwareVersions": "syngo_MR_D13",
    "SpacingBetweenSlices": 3.3,
    "StationName": "FBMTMR1",
    "TaskName": "read",
    "TotalReadoutTime": 0.0409508,
    "TxRefAmp": 347.819,
    "dataset": "ds003126",
    "dcmmeta_affine": [
      [
        -2.999758005142212,
        0.010471328161656857,
        -0.04030997306108475,
        92.91065216064453
      ],
      [
        0.013252677395939827,
        2.9911298751831055,
        -0.25315818190574646,
        -111.31640625
      ],
      [
        -0.03573377802968025,
        0.2302871197462082,
        3.2900283336639404,
        -12.583847045898438
      ],
      [
        0.0,
        0.0,
        0.0,
        1.0
      ]
    ],
    "dcmmeta_reorient_transform": [
      [
        0.0,
        -1.0,
        0.0,
        63.0
      ],
      [
        1.0,
        0.0,
        0.0,
        0.0
      ],
      [
        0.0,
        0.0,
        1.0,
        0.0
      ],
      [
        0.0,
        0.0,
        0.0,
        1.0
      ]
    ],
    "dcmmeta_shape": [
      64,
      64,
      34,
      128
    ],
    "dcmmeta_slice_dim": 2,
    "dcmmeta_version": 0.6,
    "global": {
      "const": {
        "AcquisitionMatrix": [
          64,
          0,
          0,
          64
        ],
        "AngioFlag": "N",
        "BitsAllocated": 16,
        "BitsStored": 12,
        "BodyPartExamined": "HEAD",
        "Columns": 384,
        "EchoNumbers": 1,
        "EchoTime": 33.0,
        "EchoTrainLength": 64,
        "FlipAngle": 90.0,
        "HighBit": 11,
        "ImageOrientationPatient": [
          0.99991930027986,
          -0.0044175590487,
          -0.0119112593748,
          0.00349044282877,
          0.99704330646812,
          -0.076762372527
        ],
        "ImagePositionPatient": [
          -575.20702278992,
          -553.58513887237,
          44.487584908636
        ],
        "ImageType": [
          "ORIGINAL",
          "PRIMARY",
          "M",
          "ND",
          "NORM",
          "MOSAIC"
        ],
        "ImagedNucleus": "1H",
        "ImagingFrequency": 123.22004,
        "InPlanePhaseEncodingDirection": "COL",
        "MRAcquisitionType": "2D",
        "MagneticFieldStrength": 3.0,
        "Manufacturer": "SIEMENS",
        "ManufacturerModelName": "Skyra",
        "Modality": "MR",
        "NumberOfAverages": 1.0,
        "NumberOfPhaseEncodingSteps": 64,
        "PercentPhaseFieldOfView": 100.0,
        "PercentSampling": 100.0,
        "PerformedProcedureStepStartTime": "125523.263000",
        "PhotometricInterpretation": "MONOCHROME2",
        "PixelBandwidth": 1700.0,
        "PixelRepresentation": 0,
        "PixelSpacing": [
          3.0,
          3.0
        ],
        "ProtocolName": "fMRI_3",
        "RepetitionTime": 2340.0,
        "Rows": 384,
        "SAR": 0.15785717328513,
        "SamplesPerPixel": 1,
        "ScanOptions": "FS",
        "ScanningSequence": "EP",
        "SequenceName": "*epfid2d1_64",
        "SequenceVariant": "SK",
        "SeriesDescription": "fMRI_3",
        "SeriesNumber": 8,
        "SeriesTime": "131357.116000",
        "SliceLocation": -5.1411450112484,
        "SliceThickness": 3.0,
        "SmallestImagePixelValue": 0,
        "SoftwareVersions": "syngo MR D13",
        "SpacingBetweenSlices": 3.2999999937269,
        "SpecificCharacterSet": "ISO_IR 100",
        "StudyID": "1",
        "StudyTime": "125523.210000",
        "TransmitCoilName": "Body",
        "VariableFlipAngleFlag": "N",
        "WindowCenterWidthExplanation": "Algo1",
        "dBdt": 0.0
      },
      "slices": {}
    },
    "modality": "bold",
    "run_id": 3,
    "session_id": "2",
    "subject_id": "047EPKL011063",
    "task_id": "read",
    "time": {
      "samples": {
        "AcquisitionNumber": [
          1,
          2,
          3,
          4,
          5,
          6,
          7,
          8,
          9,
          10,
          11,
          12,
          13,
          14,
          15,
          16,
          17,
          18,
          19,
          20,
          21,
          22,
          23,
          24,
          25,
          26,
          27,
          28,
          29,
          30,
          31,
          32,
          33,
          34,
          35,
          36,
          37,
          38,
          39,
          40,
          41,
          42,
          43,
          44,
          45,
          46,
          47,
          48,
          49,
          50,
          51,
          52,
          53,
          54,
          55,
          56,
          57,
          58,
          59,
          60,
          61,
          62,
          63,
          64,
          65,
          66,
          67,
          68,
          69,
          70,
          71,
          72,
          73,
          74,
          75,
          76,
          77,
          78,
          79,
          80,
          81,
          82,
          83,
          84,
          85,
          86,
          87,
          88,
          89,
          90,
          91,
          92,
          93,
          94,
          95,
          96,
          97,
          98,
          99,
          100,
          101,
          102,
          103,
          104,
          105,
          106,
          107,
          108,
          109,
          110,
          111,
          112,
          113,
          114,
          115,
          116,
          117,
          118,
          119,
          120,
          121,
          122,
          123,
          124,
          125,
          126,
          127,
          128
        ],
        "AcquisitionTime": [
          "131258.025000",
          "131300.365000",
          "131302.705000",
          "131305.045000",
          "131307.385000",
          "131309.725000",
          "131312.065000",
          "131314.405000",
          "131316.745000",
          "131319.085000",
          "131321.425000",
          "131323.765000",
          "131326.105000",
          "131328.445000",
          "131330.785000",
          "131333.125000",
          "131335.465000",
          "131337.805000",
          "131340.145000",
          "131342.485000",
          "131344.825000",
          "131347.165000",
          "131349.505000",
          "131351.845000",
          "131354.185000",
          "131356.525000",
          "131358.865000",
          "131401.205000",
          "131403.545000",
          "131405.885000",
          "131408.225000",
          "131410.565000",
          "131412.905000",
          "131415.245000",
          "131417.585000",
          "131419.925000",
          "131422.265000",
          "131424.605000",
          "131426.945000",
          "131429.285000",
          "131431.625000",
          "131433.965000",
          "131436.305000",
          "131438.645000",
          "131440.985000",
          "131443.325000",
          "131445.665000",
          "131448.005000",
          "131450.345000",
          "131452.685000",
          "131455.025000",
          "131457.365000",
          "131459.705000",
          "131502.045000",
          "131504.385000",
          "131506.725000",
          "131509.065000",
          "131511.405000",
          "131513.745000",
          "131516.085000",
          "131518.425000",
          "131520.765000",
          "131523.105000",
          "131525.445000",
          "131527.785000",
          "131530.125000",
          "131532.465000",
          "131534.805000",
          "131537.145000",
          "131539.485000",
          "131541.825000",
          "131544.165000",
          "131546.505000",
          "131548.845000",
          "131551.185000",
          "131553.525000",
          "131555.865000",
          "131558.205000",
          "131600.545000",
          "131602.885000",
          "131605.225000",
          "131607.565000",
          "131609.905000",
          "131612.245000",
          "131614.585000",
          "131616.925000",
          "131619.265000",
          "131621.605000",
          "131623.945000",
          "131626.285000",
          "131628.625000",
          "131630.965000",
          "131633.305000",
          "131635.645000",
          "131637.985000",
          "131640.325000",
          "131642.665000",
          "131645.005000",
          "131647.345000",
          "131649.685000",
          "131652.025000",
          "131654.365000",
          "131656.705000",
          "131659.045000",
          "131701.385000",
          "131703.725000",
          "131706.065000",
          "131708.405000",
          "131710.745000",
          "131713.085000",
          "131715.425000",
          "131717.765000",
          "131720.105000",
          "131722.445000",
          "131724.785000",
          "131727.125000",
          "131729.465000",
          "131731.805000",
          "131734.145000",
          "131736.485000",
          "131738.825000",
          "131741.165000",
          "131743.505000",
          "131745.845000",
          "131748.185000",
          "131750.525000",
          "131752.865000",
          "131755.205000"
        ],
        "ContentTime": [
          "131357.121000",
          "131357.124000",
          "131357.127000",
          "131357.130000",
          "131357.133000",
          "131357.136000",
          "131357.138000",
          "131357.141000",
          "131357.144000",
          "131357.147000",
          "131357.150000",
          "131357.152000",
          "131357.155000",
          "131357.158000",
          "131357.161000",
          "131357.164000",
          "131357.167000",
          "131357.170000",
          "131357.172000",
          "131357.175000",
          "131357.178000",
          "131357.181000",
          "131357.183000",
          "131357.186000",
          "131357.189000",
          "131357.191000",
          "131457.113000",
          "131457.117000",
          "131457.120000",
          "131457.122000",
          "131457.125000",
          "131457.128000",
          "131457.131000",
          "131457.134000",
          "131457.136000",
          "131457.139000",
          "131457.142000",
          "131457.149000",
          "131457.152000",
          "131457.155000",
          "131457.157000",
          "131457.160000",
          "131457.163000",
          "131457.166000",
          "131457.169000",
          "131457.172000",
          "131457.175000",
          "131457.177000",
          "131457.180000",
          "131457.183000",
          "131457.186000",
          "131557.114000",
          "131557.118000",
          "131557.121000",
          "131557.124000",
          "131557.126000",
          "131557.129000",
          "131557.132000",
          "131557.135000",
          "131557.138000",
          "131557.141000",
          "131557.143000",
          "131557.146000",
          "131557.149000",
          "131557.152000",
          "131557.155000",
          "131557.158000",
          "131557.160000",
          "131557.163000",
          "131557.166000",
          "131557.169000",
          "131557.172000",
          "131557.175000",
          "131557.178000",
          "131557.180000",
          "131557.183000",
          "131557.186000",
          "131657.113000",
          "131657.117000",
          "131657.120000",
          "131657.123000",
          "131657.126000",
          "131657.128000",
          "131657.131000",
          "131657.134000",
          "131657.138000",
          "131657.141000",
          "131657.144000",
          "131657.146000",
          "131657.149000",
          "131657.151000",
          "131657.154000",
          "131657.157000",
          "131657.160000",
          "131657.162000",
          "131657.165000",
          "131657.168000",
          "131657.170000",
          "131657.173000",
          "131657.176000",
          "131657.178000",
          "131657.181000",
          "131756.130000",
          "131756.133000",
          "131756.137000",
          "131756.140000",
          "131756.143000",
          "131756.146000",
          "131756.149000",
          "131756.152000",
          "131756.155000",
          "131756.158000",
          "131756.162000",
          "131756.165000",
          "131756.168000",
          "131756.171000",
          "131756.174000",
          "131756.177000",
          "131756.180000",
          "131756.183000",
          "131756.187000",
          "131756.190000",
          "131756.193000",
          "131756.196000",
          "131756.199000",
          "131756.202000",
          "131756.205000",
          "131756.207000"
        ],
        "InstanceCreationTime": [
          "131357.121000",
          "131357.124000",
          "131357.127000",
          "131357.130000",
          "131357.133000",
          "131357.136000",
          "131357.138000",
          "131357.141000",
          "131357.144000",
          "131357.147000",
          "131357.150000",
          "131357.152000",
          "131357.155000",
          "131357.158000",
          "131357.161000",
          "131357.164000",
          "131357.167000",
          "131357.170000",
          "131357.172000",
          "131357.175000",
          "131357.178000",
          "131357.181000",
          "131357.183000",
          "131357.186000",
          "131357.189000",
          "131357.191000",
          "131457.113000",
          "131457.117000",
          "131457.120000",
          "131457.122000",
          "131457.125000",
          "131457.128000",
          "131457.131000",
          "131457.134000",
          "131457.136000",
          "131457.139000",
          "131457.142000",
          "131457.149000",
          "131457.152000",
          "131457.155000",
          "131457.157000",
          "131457.160000",
          "131457.163000",
          "131457.166000",
          "131457.169000",
          "131457.172000",
          "131457.175000",
          "131457.177000",
          "131457.180000",
          "131457.183000",
          "131457.186000",
          "131557.114000",
          "131557.118000",
          "131557.121000",
          "131557.124000",
          "131557.126000",
          "131557.129000",
          "131557.132000",
          "131557.135000",
          "131557.138000",
          "131557.141000",
          "131557.143000",
          "131557.146000",
          "131557.149000",
          "131557.152000",
          "131557.155000",
          "131557.158000",
          "131557.160000",
          "131557.163000",
          "131557.166000",
          "131557.169000",
          "131557.172000",
          "131557.175000",
          "131557.178000",
          "131557.180000",
          "131557.183000",
          "131557.186000",
          "131657.113000",
          "131657.117000",
          "131657.120000",
          "131657.123000",
          "131657.126000",
          "131657.128000",
          "131657.131000",
          "131657.134000",
          "131657.138000",
          "131657.141000",
          "131657.144000",
          "131657.146000",
          "131657.149000",
          "131657.151000",
          "131657.154000",
          "131657.157000",
          "131657.160000",
          "131657.162000",
          "131657.165000",
          "131657.168000",
          "131657.170000",
          "131657.173000",
          "131657.176000",
          "131657.178000",
          "131657.181000",
          "131756.130000",
          "131756.133000",
          "131756.137000",
          "131756.140000",
          "131756.143000",
          "131756.146000",
          "131756.149000",
          "131756.152000",
          "131756.155000",
          "131756.158000",
          "131756.162000",
          "131756.165000",
          "131756.168000",
          "131756.171000",
          "131756.174000",
          "131756.177000",
          "131756.180000",
          "131756.183000",
          "131756.187000",
          "131756.190000",
          "131756.193000",
          "131756.196000",
          "131756.199000",
          "131756.202000",
          "131756.205000",
          "131756.207000"
        ],
        "InstanceNumber": [
          1,
          2,
          3,
          4,
          5,
          6,
          7,
          8,
          9,
          10,
          11,
          12,
          13,
          14,
          15,
          16,
          17,
          18,
          19,
          20,
          21,
          22,
          23,
          24,
          25,
          26,
          27,
          28,
          29,
          30,
          31,
          32,
          33,
          34,
          35,
          36,
          37,
          38,
          39,
          40,
          41,
          42,
          43,
          44,
          45,
          46,
          47,
          48,
          49,
          50,
          51,
          52,
          53,
          54,
          55,
          56,
          57,
          58,
          59,
          60,
          61,
          62,
          63,
          64,
          65,
          66,
          67,
          68,
          69,
          70,
          71,
          72,
          73,
          74,
          75,
          76,
          77,
          78,
          79,
          80,
          81,
          82,
          83,
          84,
          85,
          86,
          87,
          88,
          89,
          90,
          91,
          92,
          93,
          94,
          95,
          96,
          97,
          98,
          99,
          100,
          101,
          102,
          103,
          104,
          105,
          106,
          107,
          108,
          109,
          110,
          111,
          112,
          113,
          114,
          115,
          116,
          117,
          118,
          119,
          120,
          121,
          122,
          123,
          124,
          125,
          126,
          127,
          128
        ],
        "LargestImagePixelValue": [
          2335,
          2735,
          2942,
          1928,
          3318,
          2655,
          2125,
          3374,
          2675,
          1844,
          1928,
          2342,
          2083,
          2201,
          1820,
          1991,
          2776,
          3108,
          2405,
          1868,
          2146,
          3083,
          2560,
          1828,
          2676,
          3123,
          1983,
          1915,
          2668,
          1942,
          2862,
          3220,
          3077,
          2353,
          1839,
          2231,
          2714,
          2634,
          2179,
          1874,
          2402,
          2797,
          2224,
          2685,
          3035,
          2167,
          2461,
          1887,
          1869,
          2837,
          3411,
          2417,
          1972,
          1864,
          2161,
          2173,
          2616,
          2540,
          1894,
          2190,
          1881,
          2892,
          3342,
          2778,
          1836,
          1973,
          2698,
          3221,
          2608,
          1847,
          2024,
          1935,
          2279,
          2995,
          3433,
          2304,
          2900,
          1878,
          2019,
          2941,
          3139,
          2699,
          1957,
          1898,
          2780,
          2221,
          1955,
          2289,
          1987,
          2315,
          2792,
          3056,
          3067,
          2181,
          1961,
          1966,
          3054,
          1933,
          2171,
          3071,
          2883,
          2124,
          3063,
          3248,
          1842,
          1883,
          1873,
          3095,
          2439,
          1850,
          1885,
          2205,
          1997,
          2571,
          2931,
          2364,
          1903,
          3189,
          3293,
          2047,
          2491,
          3210,
          3297,
          2882,
          2267,
          3140,
          1963,
          1917
        ],
        "WindowCenter": [
          856.0,
          856.0,
          857.0,
          855.0,
          855.0,
          857.0,
          853.0,
          853.0,
          849.0,
          848.0,
          849.0,
          852.0,
          853.0,
          853.0,
          854.0,
          855.0,
          856.0,
          855.0,
          853.0,
          853.0,
          855.0,
          856.0,
          855.0,
          854.0,
          856.0,
          854.0,
          853.0,
          853.0,
          854.0,
          858.0,
          856.0,
          858.0,
          851.0,
          850.0,
          848.0,
          852.0,
          850.0,
          853.0,
          851.0,
          853.0,
          856.0,
          856.0,
          857.0,
          857.0,
          855.0,
          855.0,
          856.0,
          855.0,
          858.0,
          857.0,
          855.0,
          852.0,
          848.0,
          856.0,
          854.0,
          855.0,
          854.0,
          854.0,
          854.0,
          857.0,
          855.0,
          858.0,
          854.0,
          854.0,
          853.0,
          854.0,
          856.0,
          854.0,
          852.0,
          853.0,
          852.0,
          857.0,
          855.0,
          859.0,
          853.0,
          851.0,
          848.0,
          851.0,
          853.0,
          855.0,
          853.0,
          853.0,
          851.0,
          853.0,
          853.0,
          853.0,
          854.0,
          857.0,
          856.0,
          857.0,
          855.0,
          856.0,
          857.0,
          854.0,
          854.0,
          857.0,
          856.0,
          859.0,
          858.0,
          858.0,
          856.0,
          857.0,
          857.0,
          856.0,
          852.0,
          855.0,
          857.0,
          858.0,
          855.0,
          855.0,
          856.0,
          858.0,
          857.0,
          858.0,
          858.0,
          858.0,
          857.0,
          858.0,
          857.0,
          855.0,
          855.0,
          857.0,
          856.0,
          853.0,
          855.0,
          853.0,
          852.0,
          853.0
        ],
        "WindowWidth": [
          1794.0,
          1795.0,
          1798.0,
          1791.0,
          1792.0,
          1793.0,
          1786.0,
          1787.0,
          1776.0,
          1774.0,
          1776.0,
          1785.0,
          1785.0,
          1786.0,
          1789.0,
          1791.0,
          1794.0,
          1794.0,
          1788.0,
          1787.0,
          1793.0,
          1795.0,
          1791.0,
          1787.0,
          1796.0,
          1790.0,
          1784.0,
          1788.0,
          1790.0,
          1795.0,
          1796.0,
          1797.0,
          1779.0,
          1780.0,
          1776.0,
          1785.0,
          1781.0,
          1788.0,
          1781.0,
          1785.0,
          1795.0,
          1795.0,
          1797.0,
          1797.0,
          1790.0,
          1791.0,
          1795.0,
          1789.0,
          1795.0,
          1800.0,
          1795.0,
          1783.0,
          1774.0,
          1793.0,
          1789.0,
          1792.0,
          1789.0,
          1790.0,
          1789.0,
          1796.0,
          1791.0,
          1800.0,
          1789.0,
          1790.0,
          1785.0,
          1790.0,
          1795.0,
          1790.0,
          1784.0,
          1786.0,
          1785.0,
          1793.0,
          1794.0,
          1799.0,
          1787.0,
          1781.0,
          1779.0,
          1780.0,
          1789.0,
          1793.0,
          1788.0,
          1787.0,
          1781.0,
          1787.0,
          1789.0,
          1788.0,
          1790.0,
          1796.0,
          1793.0,
          1797.0,
          1793.0,
          1797.0,
          1798.0,
          1789.0,
          1791.0,
          1796.0,
          1794.0,
          1801.0,
          1798.0,
          1799.0,
          1793.0,
          1797.0,
          1798.0,
          1795.0,
          1784.0,
          1793.0,
          1797.0,
          1802.0,
          1791.0,
          1791.0,
          1794.0,
          1799.0,
          1795.0,
          1798.0,
          1801.0,
          1800.0,
          1798.0,
          1801.0,
          1796.0,
          1790.0,
          1793.0,
          1799.0,
          1794.0,
          1791.0,
          1791.0,
          1789.0,
          1783.0,
          1787.0
        ]
      },
      "slices": {}
    }
  },
  "dummy_trs": 0,
  "dvars_nstd": 42.77489572078743,
  "dvars_std": 1.3405052451968502,
  "dvars_vstd": 1.0790521465354332,
  "efc": 0.6076990876844133,
  "fber": 1556.2235107421875,
  "fd_mean": 0.7233503863210338,
  "fd_num": 119,
  "fd_perc": 92.96875,
  "fwhm_avg": 1.6241645527687634,
  "fwhm_x": 1.5281033333333334,
  "fwhm_y": 1.8258266666666667,
  "fwhm_z": 1.5185636583062903,
  "gcor": 0.0328022,
  "gsr_x": -0.00543308537453413,
  "gsr_y": 0.03799884766340256,
  "provenance": {
    "md5sum": "8e561236325afe026d26d40b49a15b0c",
    "settings": {
      "fd_thres": 0.2,
      "testing": false
    },
    "software": "mriqc",
    "version": "22.0.1",
    "webapi_port": null,
    "webapi_url": "https://mriqc.nimh.nih.gov/api/v1"
  },
  "size_t": 128,
  "size_x": 64,
  "size_y": 64,
  "size_z": 34,
  "snr": 7.552891463211181,
  "spacing_tr": 2.3399999141693115,
  "spacing_x": 3.0,
  "spacing_y": 3.0,
  "spacing_z": 3.299999952316284,
  "summary_bg_k": 47.092666875315565,
  "summary_bg_mad": 10.123393273233564,
  "summary_bg_mean": 37.39651107788086,
  "summary_bg_median": 23.6484375,
  "summary_bg_n": 65282.0,
  "summary_bg_p05": 13.3515625,
  "summary_bg_p95": 98.46835937499998,
  "summary_bg_stdv": 47.34043502807617,
  "summary_fg_k": 3.504733099421938,
  "summary_fg_mad": 119.05990784389908,
  "summary_fg_mean": 970.8029174804688,
  "summary_fg_median": 965.73046875,
  "summary_fg_n": 39670.0,
  "summary_fg_p05": 790.4015625,
  "summary_fg_p95": 1166.1621093749998,
  "summary_fg_stdv": 127.8607406616211,
  "tsnr": 46.82157293893397
}