{
  "aor": 0.00720984496124031,
  "aqi": 0.01669821007751938,
  "bids_meta": {
    "AcquisitionMatrixPE": 64,
    "AcquisitionNumber": 1,
    "AcquisitionTime": "13:05:52.347500",
    "BandwidthPerPixelPhaseEncode": 24.038,
    "BaseResolution": 64,
    "BodyPartExamined": "HEAD",
    "ConsistencyInfo": "N4_VD13A_LATEST_20120616",
    "ConversionSoftware": "dcm2niix",
    "ConversionSoftwareVersion": "v1.0.20181125  GCC6.3.0",
    "DerivedVendorReportedEchoSpacing": 0.000650012,
    "DeviceSerialNumber": "45250",
    "DwellTime": 4.6e-06,
    "EchoTime": 0.033,
    "EchoTrainLength": 64,
    "EffectiveEchoSpacing": 0.000650012,
    "FlipAngle": 90,
    "ImageOrientationPatientDICOM": [
      0.999919,
      -0.00495325,
      -0.0116986,
      0.00349035,
      0.992535,
      -0.121912
    ],
    "ImageType": [
      "ORIGINAL",
      "PRIMARY",
      "M",
      "ND",
      "NORM",
      "MOSAIC"
    ],
    "ImagingFrequency": 123.22,
    "InPlanePhaseEncodingDirectionDICOM": "COL",
    "InstitutionAddress": "Kopernikusstr._26_Graz_Graz_AT_8010",
    "InstitutionName": "KFU",
    "InstitutionalDepartmentName": "Department",
    "MRAcquisitionType": "2D",
    "MagneticFieldStrength": 3,
    "Manufacturer": "Siemens",
    "ManufacturersModelName": "Skyra",
    "Modality": "MR",
    "PartialFourier": 1,
    "PatientPosition": "HFS",
    "PercentPhaseFOV": 100,
    "PhaseEncodingDirection": "j-",
    "PhaseEncodingSteps": 64,
    "PhaseResolution": 1,
    "PixelBandwidth": 1700,
    "ProcedureStepDescription": "KFU_Entw-Psy",
    "ProtocolName": "fMRI_2",
    "PulseSequenceDetails": "%SiemensSeq%_ep2d_pace",
    "ReceiveCoilActiveElements": "HE1-4",
    "ReceiveCoilName": "HeadNeck_20",
    "ReconMatrixPE": 64,
    "RepetitionTime": 2.34,
    "SAR": 0.157857,
    "ScanOptions": "FS",
    "ScanningSequence": "EP",
    "SequenceName": "_epfid2d1_64",
    "SequenceVariant": "SK",
    "SeriesDescription": "fMRI_2",
    "SeriesNumber": 5,
    "ShimSetting": [
      -1662,
      -3765,
      -4173,
      499,
      473,
      38,
      564,
      -109
    ],
    "SliceThickness": 3,
    "SliceTiming": [
      2.2525,
      2.185,
      2.115,
      2.0475,
      1.98,
      1.9125,
      1.8425,
      1.775,
      1.7075,
      1.6375,
      1.57,
      1.5025,
      1.435,
      1.365,
      1.2975,
      1.23,
      1.16,
      1.0925,
      1.025,
      0.955,
      0.8875,
      0.82,
      0.7525,
      0.6825,
      0.615,
      0.5475,
      0.4775,
      0.41,
      0.3425,
      0.275,
      0.205,
      0.1375,
      0.07,
      0
    ],
    "SoftwareVersions": "syngo_MR_D13",
    "SpacingBetweenSlices": 3.3,
    "StationName": "FBMTMR1",
    "TaskName": "read",
    "TotalReadoutTime": 0.0409508,
    "TxRefAmp": 347.819,
    "dataset": "ds003126",
    "dcmmeta_affine": [
      [
        -2.999758005142212,
        0.0104710403829813,
        -0.04030993953347206,
        92.91065979003906
      ],
      [
        0.01485973596572876,
        2.9776041507720947,
        -0.40214312076568604,
        -108.49038696289062
      ],
      [
        -0.03509581461548805,
        0.3657366633415222,
        3.2751574516296387,
        -15.353049278259277
      ],
      [
        0.0,
        0.0,
        0.0,
        1.0
      ]
    ],
    "dcmmeta_reorient_transform": [
      [
        0.0,
        -1.0,
        0.0,
        63.0
      ],
      [
        1.0,
        0.0,
        0.0,
        0.0
      ],
      [
        0.0,
        0.0,
        1.0,
        0.0
      ],
      [
        0.0,
        0.0,
        0.0,
        1.0
      ]
    ],
    "dcmmeta_shape": [
      64,
      64,
      34,
      129
    ],
    "dcmmeta_slice_dim": 2,
    "dcmmeta_version": 0.6,
    "global": {
      "const": {
        "AcquisitionMatrix": [
          64,
          0,
          0,
          64
        ],
        "AngioFlag": "N",
        "BitsAllocated": 16,
        "BitsStored": 12,
        "BodyPartExamined": "HEAD",
        "Columns": 384,
        "EchoNumbers": 1,
        "EchoTime": 33.0,
        "EchoTrainLength": 64,
        "FlipAngle": 90.0,
        "HighBit": 11,
        "ImageOrientationPatient": [
          0.9999193007511,
          -0.004953245191,
          -0.0116986045113,
          0.00349034684119,
          0.99253474952981,
          -0.1219122161833
        ],
        "ImagePositionPatient": [
          -575.20696777251,
          -553.13780286052,
          71.821553282068
        ],
        "ImageType": [
          "ORIGINAL",
          "PRIMARY",
          "M",
          "ND",
          "NORM",
          "MOSAIC"
        ],
        "ImagedNucleus": "1H",
        "ImagingFrequency": 123.220034,
        "InPlanePhaseEncodingDirection": "COL",
        "MRAcquisitionType": "2D",
        "MagneticFieldStrength": 3.0,
        "Manufacturer": "SIEMENS",
        "ManufacturerModelName": "Skyra",
        "Modality": "MR",
        "NumberOfAverages": 1.0,
        "NumberOfPhaseEncodingSteps": 64,
        "PercentPhaseFieldOfView": 100.0,
        "PercentSampling": 100.0,
        "PerformedProcedureStepStartTime": "125523.263000",
        "PhotometricInterpretation": "MONOCHROME2",
        "PixelBandwidth": 1700.0,
        "PixelRepresentation": 0,
        "PixelSpacing": [
          3.0,
          3.0
        ],
        "ProtocolName": "fMRI_2",
        "RepetitionTime": 2340.0,
        "Rows": 384,
        "SAR": 0.15785717328513,
        "SamplesPerPixel": 1,
        "ScanOptions": "FS",
        "ScanningSequence": "EP",
        "SequenceName": "*epfid2d1_64",
        "SequenceVariant": "SK",
        "SeriesDescription": "fMRI_2",
        "SeriesNumber": 5,
        "SeriesTime": "130642.353000",
        "SliceLocation": -3.1515806529164,
        "SliceThickness": 3.0,
        "SmallestImagePixelValue": 0,
        "SoftwareVersions": "syngo MR D13",
        "SpacingBetweenSlices": 3.3000000744062,
        "SpecificCharacterSet": "ISO_IR 100",
        "StudyID": "1",
        "StudyTime": "125523.210000",
        "TransmitCoilName": "Body",
        "VariableFlipAngleFlag": "N",
        "WindowCenterWidthExplanation": "Algo1",
        "dBdt": 0.0
      },
      "slices": {}
    },
    "modality": "bold",
    "run_id": 2,
    "session_id": "2",
    "subject_id": "047EPKL011063",
    "task_id": "read",
    "time": {
      "samples": {
        "AcquisitionNumber": [
          1,
          2,
          3,
          4,
          5,
          6,
          7,
          8,
          9,
          10,
          11,
          12,
          13,
          14,
          15,
          16,
          17,
          18,
          19,
          20,
          21,
          22,
          23,
          24,
          25,
          26,
          27,
          28,
          29,
          30,
          31,
          32,
          33,
          34,
          35,
          36,
          37,
          38,
          39,
          40,
          41,
          42,
          43,
          44,
          45,
          46,
          47,
          48,
          49,
          50,
          51,
          52,
          53,
          54,
          55,
          56,
          57,
          58,
          59,
          60,
          61,
          62,
          63,
          64,
          65,
          66,
          67,
          68,
          69,
          70,
          71,
          72,
          73,
          74,
          75,
          76,
          77,
          78,
          79,
          80,
          81,
          82,
          83,
          84,
          85,
          86,
          87,
          88,
          89,
          90,
          91,
          92,
          93,
          94,
          95,
          96,
          97,
          98,
          99,
          100,
          101,
          102,
          103,
          104,
          105,
          106,
          107,
          108,
          109,
          110,
          111,
          112,
          113,
          114,
          115,
          116,
          117,
          118,
          119,
          120,
          121,
          122,
          123,
          124,
          125,
          126,
          127,
          128,
          129
        ],
        "AcquisitionTime": [
          "130552.347500",
          "130554.687500",
          "130557.027500",
          "130559.367500",
          "130601.707500",
          "130604.047500",
          "130606.387500",
          "130608.727500",
          "130611.067500",
          "130613.407500",
          "130615.747500",
          "130618.087500",
          "130620.427500",
          "130622.767500",
          "130625.107500",
          "130627.447500",
          "130629.787500",
          "130632.127500",
          "130634.467500",
          "130636.807500",
          "130639.147500",
          "130641.487500",
          "130643.827500",
          "130646.167500",
          "130648.507500",
          "130650.847500",
          "130653.187500",
          "130655.527500",
          "130657.867500",
          "130700.207500",
          "130702.547500",
          "130704.887500",
          "130707.227500",
          "130709.567500",
          "130711.907500",
          "130714.247500",
          "130716.587500",
          "130718.927500",
          "130721.267500",
          "130723.607500",
          "130725.947500",
          "130728.287500",
          "130730.627500",
          "130732.967500",
          "130735.307500",
          "130737.647500",
          "130739.987500",
          "130742.327500",
          "130744.667500",
          "130747.007500",
          "130749.347500",
          "130751.687500",
          "130754.027500",
          "130756.367500",
          "130758.707500",
          "130801.047500",
          "130803.387500",
          "130805.727500",
          "130808.067500",
          "130810.407500",
          "130812.747500",
          "130815.087500",
          "130817.427500",
          "130819.767500",
          "130822.107500",
          "130824.447500",
          "130826.787500",
          "130829.127500",
          "130831.467500",
          "130833.807500",
          "130836.147500",
          "130838.487500",
          "130840.827500",
          "130843.167500",
          "130845.507500",
          "130847.847500",
          "130850.187500",
          "130852.527500",
          "130854.867500",
          "130857.207500",
          "130859.547500",
          "130901.887500",
          "130904.227500",
          "130906.567500",
          "130908.907500",
          "130911.247500",
          "130913.587500",
          "130915.927500",
          "130918.267500",
          "130920.607500",
          "130922.947500",
          "130925.287500",
          "130927.627500",
          "130929.967500",
          "130932.307500",
          "130934.647500",
          "130936.987500",
          "130939.327500",
          "130941.667500",
          "130944.007500",
          "130946.347500",
          "130948.687500",
          "130951.027500",
          "130953.367500",
          "130955.707500",
          "130958.047500",
          "131000.387500",
          "131002.727500",
          "131005.067500",
          "131007.407500",
          "131009.747500",
          "131012.087500",
          "131014.427500",
          "131016.767500",
          "131019.107500",
          "131021.447500",
          "131023.787500",
          "131026.127500",
          "131028.467500",
          "131030.807500",
          "131033.147500",
          "131035.487500",
          "131037.827500",
          "131040.167500",
          "131042.507500",
          "131044.847500",
          "131047.187500",
          "131049.527500",
          "131051.867500"
        ],
        "ContentTime": [
          "130642.357000",
          "130642.361000",
          "130642.363000",
          "130642.366000",
          "130642.369000",
          "130642.372000",
          "130642.374000",
          "130642.387000",
          "130642.390000",
          "130642.393000",
          "130642.395000",
          "130642.398000",
          "130642.401000",
          "130642.404000",
          "130642.407000",
          "130642.409000",
          "130642.419000",
          "130642.422000",
          "130642.425000",
          "130642.441000",
          "130642.444000",
          "130642.447000",
          "130742.350000",
          "130742.354000",
          "130742.356000",
          "130742.359000",
          "130742.362000",
          "130742.365000",
          "130742.367000",
          "130742.370000",
          "130742.373000",
          "130742.376000",
          "130742.379000",
          "130742.382000",
          "130742.384000",
          "130742.387000",
          "130742.390000",
          "130742.393000",
          "130742.396000",
          "130742.398000",
          "130742.401000",
          "130742.404000",
          "130742.407000",
          "130742.410000",
          "130742.412000",
          "130742.415000",
          "130742.418000",
          "130822.351000",
          "130822.354000",
          "130822.357000",
          "130822.359000",
          "130822.362000",
          "130822.365000",
          "130822.368000",
          "130822.370000",
          "130822.373000",
          "130822.376000",
          "130822.379000",
          "130822.382000",
          "130822.385000",
          "130822.387000",
          "130822.390000",
          "130822.393000",
          "130822.396000",
          "130822.399000",
          "130922.351000",
          "130922.354000",
          "130922.357000",
          "130922.360000",
          "130922.363000",
          "130922.366000",
          "130922.369000",
          "130922.372000",
          "130922.375000",
          "130922.377000",
          "130922.380000",
          "130922.383000",
          "130922.386000",
          "130922.389000",
          "130922.392000",
          "130922.394000",
          "130922.406000",
          "130922.409000",
          "130922.411000",
          "130922.414000",
          "130922.417000",
          "130922.420000",
          "130922.423000",
          "130922.426000",
          "130922.428000",
          "131022.350000",
          "131022.353000",
          "131022.356000",
          "131022.359000",
          "131022.362000",
          "131022.365000",
          "131022.368000",
          "131022.371000",
          "131022.373000",
          "131022.376000",
          "131022.379000",
          "131022.382000",
          "131022.385000",
          "131022.388000",
          "131022.390000",
          "131022.393000",
          "131022.396000",
          "131022.399000",
          "131022.402000",
          "131022.405000",
          "131022.408000",
          "131022.411000",
          "131022.414000",
          "131022.416000",
          "131022.419000",
          "131022.422000",
          "131052.791000",
          "131052.795000",
          "131052.797000",
          "131052.800000",
          "131052.804000",
          "131052.807000",
          "131052.812000",
          "131052.817000",
          "131052.822000",
          "131052.826000",
          "131052.831000",
          "131052.835000",
          "131052.839000"
        ],
        "InstanceCreationTime": [
          "130642.357000",
          "130642.361000",
          "130642.363000",
          "130642.366000",
          "130642.369000",
          "130642.372000",
          "130642.374000",
          "130642.387000",
          "130642.390000",
          "130642.393000",
          "130642.395000",
          "130642.398000",
          "130642.401000",
          "130642.404000",
          "130642.407000",
          "130642.409000",
          "130642.419000",
          "130642.422000",
          "130642.425000",
          "130642.441000",
          "130642.444000",
          "130642.447000",
          "130742.350000",
          "130742.354000",
          "130742.356000",
          "130742.359000",
          "130742.362000",
          "130742.365000",
          "130742.367000",
          "130742.370000",
          "130742.373000",
          "130742.376000",
          "130742.379000",
          "130742.382000",
          "130742.384000",
          "130742.387000",
          "130742.390000",
          "130742.393000",
          "130742.396000",
          "130742.398000",
          "130742.401000",
          "130742.404000",
          "130742.407000",
          "130742.410000",
          "130742.412000",
          "130742.415000",
          "130742.418000",
          "130822.351000",
          "130822.354000",
          "130822.357000",
          "130822.359000",
          "130822.362000",
          "130822.365000",
          "130822.368000",
          "130822.370000",
          "130822.373000",
          "130822.376000",
          "130822.379000",
          "130822.382000",
          "130822.385000",
          "130822.387000",
          "130822.390000",
          "130822.393000",
          "130822.396000",
          "130822.399000",
          "130922.351000",
          "130922.354000",
          "130922.357000",
          "130922.360000",
          "130922.363000",
          "130922.366000",
          "130922.369000",
          "130922.372000",
          "130922.375000",
          "130922.377000",
          "130922.380000",
          "130922.383000",
          "130922.386000",
          "130922.389000",
          "130922.392000",
          "130922.394000",
          "130922.406000",
          "130922.409000",
          "130922.411000",
          "130922.414000",
          "130922.417000",
          "130922.420000",
          "130922.423000",
          "130922.426000",
          "130922.428000",
          "131022.350000",
          "131022.353000",
          "131022.356000",
          "131022.359000",
          "131022.362000",
          "131022.365000",
          "131022.368000",
          "131022.371000",
          "131022.373000",
          "131022.376000",
          "131022.379000",
          "131022.382000",
          "131022.385000",
          "131022.388000",
          "131022.390000",
          "131022.393000",
          "131022.396000",
          "131022.399000",
          "131022.402000",
          "131022.405000",
          "131022.408000",
          "131022.411000",
          "131022.414000",
          "131022.416000",
          "131022.419000",
          "131022.422000",
          "131052.791000",
          "131052.795000",
          "131052.797000",
          "131052.800000",
          "131052.804000",
          "131052.807000",
          "131052.812000",
          "131052.817000",
          "131052.822000",
          "131052.826000",
          "131052.831000",
          "131052.835000",
          "131052.839000"
        ],
        "InstanceNumber": [
          1,
          2,
          3,
          4,
          5,
          6,
          7,
          8,
          9,
          10,
          11,
          12,
          13,
          14,
          15,
          16,
          17,
          18,
          19,
          20,
          21,
          22,
          23,
          24,
          25,
          26,
          27,
          28,
          29,
          30,
          31,
          32,
          33,
          34,
          35,
          36,
          37,
          38,
          39,
          40,
          41,
          42,
          43,
          44,
          45,
          46,
          47,
          48,
          49,
          50,
          51,
          52,
          53,
          54,
          55,
          56,
          57,
          58,
          59,
          60,
          61,
          62,
          63,
          64,
          65,
          66,
          67,
          68,
          69,
          70,
          71,
          72,
          73,
          74,
          75,
          76,
          77,
          78,
          79,
          80,
          81,
          82,
          83,
          84,
          85,
          86,
          87,
          88,
          89,
          90,
          91,
          92,
          93,
          94,
          95,
          96,
          97,
          98,
          99,
          100,
          101,
          102,
          103,
          104,
          105,
          106,
          107,
          108,
          109,
          110,
          111,
          112,
          113,
          114,
          115,
          116,
          117,
          118,
          119,
          120,
          121,
          122,
          123,
          124,
          125,
          126,
          127,
          128,
          129
        ],
        "LargestImagePixelValue": [
          2745,
          2709,
          2588,
          2216,
          2959,
          3400,
          3478,
          2559,
          2095,
          2015,
          2183,
          2630,
          1940,
          2512,
          2664,
          2611,
          2290,
          3243,
          3282,
          3213,
          2674,
          2513,
          2254,
          2015,
          2272,
          2703,
          3142,
          1973,
          2789,
          2749,
          2837,
          1843,
          2652,
          3038,
          2836,
          3118,
          2559,
          1900,
          2460,
          1828,
          3082,
          3313,
          2185,
          2926,
          2345,
          3519,
          3452,
          3024,
          2449,
          1988,
          2449,
          2524,
          2525,
          3054,
          2801,
          1769,
          1846,
          3236,
          3318,
          3515,
          2030,
          1969,
          2249,
          2182,
          1822,
          3097,
          2888,
          1853,
          3046,
          2287,
          1767,
          2814,
          3304,
          3282,
          2896,
          3378,
          3138,
          1804,
          2559,
          2601,
          1830,
          3232,
          2335,
          2028,
          2920,
          2509,
          2688,
          3300,
          2632,
          3190,
          2643,
          3216,
          2358,
          2731,
          2886,
          2945,
          1962,
          2049,
          2734,
          2630,
          3240,
          3058,
          1800,
          2465,
          3455,
          3369,
          2587,
          2955,
          1984,
          3045,
          3243,
          2558,
          3513,
          2107,
          2812,
          3286,
          2524,
          2082,
          2783,
          1937,
          3558,
          3504,
          3029,
          3042,
          2340,
          2016,
          2015,
          2694,
          3388
        ],
        "WindowCenter": [
          855.0,
          854.0,
          852.0,
          853.0,
          854.0,
          853.0,
          851.0,
          850.0,
          849.0,
          850.0,
          852.0,
          853.0,
          851.0,
          853.0,
          853.0,
          853.0,
          853.0,
          854.0,
          853.0,
          852.0,
          851.0,
          851.0,
          851.0,
          852.0,
          854.0,
          853.0,
          854.0,
          852.0,
          852.0,
          851.0,
          852.0,
          852.0,
          852.0,
          852.0,
          852.0,
          853.0,
          851.0,
          852.0,
          853.0,
          853.0,
          855.0,
          855.0,
          851.0,
          854.0,
          855.0,
          853.0,
          851.0,
          852.0,
          851.0,
          851.0,
          853.0,
          852.0,
          853.0,
          854.0,
          851.0,
          854.0,
          851.0,
          854.0,
          852.0,
          848.0,
          842.0,
          848.0,
          846.0,
          847.0,
          850.0,
          853.0,
          849.0,
          849.0,
          852.0,
          851.0,
          853.0,
          854.0,
          856.0,
          855.0,
          853.0,
          854.0,
          853.0,
          851.0,
          854.0,
          854.0,
          852.0,
          854.0,
          854.0,
          855.0,
          856.0,
          853.0,
          854.0,
          855.0,
          854.0,
          853.0,
          853.0,
          855.0,
          852.0,
          856.0,
          854.0,
          853.0,
          852.0,
          856.0,
          854.0,
          855.0,
          856.0,
          855.0,
          852.0,
          857.0,
          856.0,
          855.0,
          853.0,
          854.0,
          854.0,
          854.0,
          852.0,
          853.0,
          854.0,
          856.0,
          855.0,
          856.0,
          853.0,
          856.0,
          856.0,
          855.0,
          856.0,
          855.0,
          854.0,
          854.0,
          853.0,
          853.0,
          854.0,
          856.0,
          855.0
        ],
        "WindowWidth": [
          1792.0,
          1789.0,
          1786.0,
          1786.0,
          1789.0,
          1788.0,
          1784.0,
          1779.0,
          1778.0,
          1781.0,
          1785.0,
          1788.0,
          1781.0,
          1788.0,
          1789.0,
          1787.0,
          1787.0,
          1791.0,
          1790.0,
          1785.0,
          1782.0,
          1785.0,
          1781.0,
          1785.0,
          1790.0,
          1786.0,
          1790.0,
          1784.0,
          1785.0,
          1785.0,
          1784.0,
          1783.0,
          1787.0,
          1787.0,
          1786.0,
          1790.0,
          1783.0,
          1785.0,
          1789.0,
          1787.0,
          1796.0,
          1792.0,
          1783.0,
          1792.0,
          1792.0,
          1790.0,
          1786.0,
          1785.0,
          1782.0,
          1785.0,
          1787.0,
          1785.0,
          1786.0,
          1790.0,
          1784.0,
          1785.0,
          1787.0,
          1791.0,
          1785.0,
          1774.0,
          1758.0,
          1774.0,
          1771.0,
          1772.0,
          1780.0,
          1789.0,
          1779.0,
          1779.0,
          1785.0,
          1784.0,
          1787.0,
          1792.0,
          1796.0,
          1793.0,
          1788.0,
          1792.0,
          1789.0,
          1783.0,
          1791.0,
          1789.0,
          1784.0,
          1794.0,
          1790.0,
          1791.0,
          1797.0,
          1788.0,
          1790.0,
          1792.0,
          1791.0,
          1788.0,
          1786.0,
          1794.0,
          1785.0,
          1797.0,
          1792.0,
          1788.0,
          1784.0,
          1795.0,
          1790.0,
          1793.0,
          1797.0,
          1792.0,
          1785.0,
          1798.0,
          1797.0,
          1794.0,
          1788.0,
          1791.0,
          1788.0,
          1790.0,
          1788.0,
          1787.0,
          1790.0,
          1793.0,
          1793.0,
          1794.0,
          1787.0,
          1794.0,
          1794.0,
          1791.0,
          1797.0,
          1792.0,
          1791.0,
          1791.0,
          1787.0,
          1788.0,
          1789.0,
          1796.0,
          1795.0
        ]
      },
      "slices": {}
    }
  },
  "dummy_trs": 0,
  "dvars_nstd": 35.5920891315625,
  "dvars_std": 1.3258132957031246,
  "dvars_vstd": 1.0714256834375,
  "efc": 0.6061566941193527,
  "fber": 1584.9677734375,
  "fd_mean": 0.5451047878198889,
  "fd_num": 113,
  "fd_perc": 87.59689922480621,
  "fwhm_avg": 1.6153074454300043,
  "fwhm_x": 1.5225333333333333,
  "fwhm_y": 1.80168,
  "fwhm_z": 1.521709002956679,
  "gcor": 0.0334672,
  "gsr_x": -0.0036103916354477406,
  "gsr_y": 0.036474909633398056,
  "provenance": {
    "md5sum": "311d0ecd97bb825de999de5a284d39ed",
    "settings": {
      "fd_thres": 0.2,
      "testing": false
    },
    "software": "mriqc",
    "version": "22.0.1",
    "webapi_port": null,
    "webapi_url": "https://mriqc.nimh.nih.gov/api/v1"
  },
  "size_t": 129,
  "size_x": 64,
  "size_y": 64,
  "size_z": 34,
  "snr": 7.57175344470304,
  "spacing_tr": 2.3399999141693115,
  "spacing_x": 3.0,
  "spacing_y": 3.0,
  "spacing_z": 3.3000001907348633,
  "summary_bg_k": 44.61741396774892,
  "summary_bg_mad": 9.987453381708292,
  "summary_bg_mean": 36.35092544555664,
  "summary_bg_median": 23.395349502563477,
  "summary_bg_n": 65431.0,
  "summary_bg_p05": 13.333333015441895,
  "summary_bg_p95": 94.22093200683594,
  "summary_bg_stdv": 44.97615051269531,
  "summary_fg_k": 3.2871620409270825,
  "summary_fg_mad": 119.56204161529115,
  "summary_fg_mean": 968.280029296875,
  "summary_fg_median": 963.8372192382812,
  "summary_fg_n": 39707.0,
  "summary_fg_p05": 787.3759460449219,
  "summary_fg_p95": 1163.9580810546872,
  "summary_fg_stdv": 127.29219055175781,
  "tsnr": 54.60378837864846
}