{
  "aor": 0.003773225806451613,
  "aqi": 0.011230892822580647,
  "bids_meta": {
    "AcquisitionMatrixPE": 64,
    "AcquisitionNumber": 1,
    "AcquisitionTime": "13:05:38.722500",
    "BandwidthPerPixelPhaseEncode": 24.038,
    "BaseResolution": 64,
    "BodyPartExamined": "HEAD",
    "ConsistencyInfo": "N4_VD13A_LATEST_20120616",
    "ConversionSoftware": "dcm2niix",
    "ConversionSoftwareVersion": "v1.0.20181125  GCC6.3.0",
    "DerivedVendorReportedEchoSpacing": 0.000650012,
    "DeviceSerialNumber": "45250",
    "DwellTime": 4.6e-06,
    "EchoTime": 0.033,
    "EchoTrainLength": 64,
    "EffectiveEchoSpacing": 0.000650012,
    "FlipAngle": 90,
    "ImageOrientationPatientDICOM": [
      0.998186,
      8.03457e-05,
      0.0602048,
      0.020909,
      0.937291,
      -0.34792
    ],
    "ImageType": [
      "ORIGINAL",
      "PRIMARY",
      "M",
      "ND",
      "NORM",
      "MOSAIC"
    ],
    "ImagingFrequency": 123.214,
    "InPlanePhaseEncodingDirectionDICOM": "COL",
    "InstitutionAddress": "Kopernikusstr._26_Graz_Graz_AT_8010",
    "InstitutionName": "KFU",
    "InstitutionalDepartmentName": "Department",
    "MRAcquisitionType": "2D",
    "MagneticFieldStrength": 3,
    "Manufacturer": "Siemens",
    "ManufacturersModelName": "Skyra",
    "Modality": "MR",
    "PartialFourier": 1,
    "PatientPosition": "HFS",
    "PercentPhaseFOV": 100,
    "PhaseEncodingDirection": "j-",
    "PhaseEncodingSteps": 64,
    "PhaseResolution": 1,
    "PixelBandwidth": 1700,
    "ProcedureStepDescription": "KFU_Entw-Psy",
    "ProtocolName": "fMRI_3",
    "PulseSequenceDetails": "%SiemensSeq%_ep2d_pace",
    "ReceiveCoilActiveElements": "HE1-4",
    "ReceiveCoilName": "HeadNeck_20",
    "ReconMatrixPE": 64,
    "RepetitionTime": 2.34,
    "SAR": 0.190959,
    "ScanOptions": "FS",
    "ScanningSequence": "EP",
    "SequenceName": "_epfid2d1_64",
    "SequenceVariant": "SK",
    "SeriesDescription": "fMRI_3",
    "SeriesNumber": 8,
    "ShimSetting": [
      -1483,
      -3547,
      -4306,
      415,
      584,
      283,
      -55,
      -176
    ],
    "SliceThickness": 3,
    "SliceTiming": [
      2.25,
      2.1825,
      2.115,
      2.0475,
      1.9775,
      1.91,
      1.8425,
      1.7725,
      1.705,
      1.6375,
      1.57,
      1.5,
      1.4325,
      1.365,
      1.295,
      1.2275,
      1.16,
      1.0925,
      1.0225,
      0.955,
      0.8875,
      0.8175,
      0.75,
      0.6825,
      0.6125,
      0.545,
      0.4775,
      0.41,
      0.34,
      0.2725,
      0.205,
      0.135,
      0.0675,
      0
    ],
    "SoftwareVersions": "syngo_MR_D13",
    "SpacingBetweenSlices": 3.3,
    "StationName": "FBMTMR1",
    "TaskName": "read",
    "TotalReadoutTime": 0.0409508,
    "TxRefAmp": 434.004,
    "dataset": "ds003126",
    "dcmmeta_affine": [
      [
        -2.994558095932007,
        0.06272711604833603,
        0.18630927801132202,
        92.3791275024414
      ],
      [
        -0.0002410371816949919,
        2.8118736743927,
        -1.1502059698104858,
        -98.31237030029297
      ],
      [
        0.18061432242393494,
        1.0437586307525635,
        3.08744478225708,
        -49.76994323730469
      ],
      [
        0.0,
        0.0,
        0.0,
        1.0
      ]
    ],
    "dcmmeta_reorient_transform": [
      [
        0.0,
        -1.0,
        0.0,
        63.0
      ],
      [
        1.0,
        0.0,
        0.0,
        0.0
      ],
      [
        0.0,
        0.0,
        1.0,
        0.0
      ],
      [
        0.0,
        0.0,
        0.0,
        1.0
      ]
    ],
    "dcmmeta_shape": [
      64,
      64,
      34,
      124
    ],
    "dcmmeta_slice_dim": 2,
    "dcmmeta_version": 0.6,
    "global": {
      "const": {
        "AcquisitionMatrix": [
          64,
          0,
          0,
          64
        ],
        "AngioFlag": "N",
        "BitsAllocated": 16,
        "BitsStored": 12,
        "BodyPartExamined": "HEAD",
        "Columns": 384,
        "EchoNumbers": 1,
        "EchoTime": 33.0,
        "EchoTrainLength": 64,
        "FlipAngle": 90.0,
        "HighBit": 11,
        "ImageOrientationPatient": [
          0.99818604412549,
          8.034572652e-05,
          0.06020477437606,
          0.02090903878865,
          0.93729120248785,
          -0.34791955081
        ],
        "ImagePositionPatient": [
          -585.49657895678,
          -528.77400848321,
          154.08994409795
        ],
        "ImageType": [
          "ORIGINAL",
          "PRIMARY",
          "M",
          "ND",
          "NORM",
          "MOSAIC"
        ],
        "ImagedNucleus": "1H",
        "ImagingFrequency": 123.214295,
        "InPlanePhaseEncodingDirection": "COL",
        "MRAcquisitionType": "2D",
        "MagneticFieldStrength": 3.0,
        "Manufacturer": "SIEMENS",
        "ManufacturerModelName": "Skyra",
        "Modality": "MR",
        "NumberOfAverages": 1.0,
        "NumberOfPhaseEncodingSteps": 64,
        "PercentPhaseFieldOfView": 100.0,
        "PercentSampling": 100.0,
        "PerformedProcedureStepStartTime": "122643.518000",
        "PhotometricInterpretation": "MONOCHROME2",
        "PixelBandwidth": 1700.0,
        "PixelRepresentation": 0,
        "PixelSpacing": [
          3.0,
          3.0
        ],
        "ProtocolName": "fMRI_3",
        "RepetitionTime": 2340.0,
        "Rows": 384,
        "SAR": 0.19095913037248,
        "SamplesPerPixel": 1,
        "ScanOptions": "FS",
        "ScanningSequence": "EP",
        "SequenceName": "*epfid2d1_64",
        "SequenceVariant": "SK",
        "SeriesDescription": "fMRI_3",
        "SeriesNumber": 8,
        "SeriesTime": "130629.279000",
        "SliceLocation": -7.0822376268981,
        "SliceThickness": 3.0,
        "SmallestImagePixelValue": 0,
        "SoftwareVersions": "syngo MR D13",
        "SpacingBetweenSlices": 3.2999999218483,
        "SpecificCharacterSet": "ISO_IR 100",
        "StudyID": "1",
        "StudyTime": "122643.470000",
        "TransmitCoilName": "Body",
        "VariableFlipAngleFlag": "N",
        "WindowCenterWidthExplanation": "Algo1",
        "dBdt": 0.0
      },
      "slices": {}
    },
    "modality": "bold",
    "run_id": 3,
    "session_id": "2",
    "subject_id": "047EPKL014037",
    "task_id": "read",
    "time": {
      "samples": {
        "AcquisitionNumber": [
          1,
          2,
          3,
          4,
          5,
          6,
          7,
          8,
          9,
          10,
          11,
          12,
          13,
          14,
          15,
          16,
          17,
          18,
          19,
          20,
          21,
          22,
          23,
          24,
          25,
          26,
          27,
          28,
          29,
          30,
          31,
          32,
          33,
          34,
          35,
          36,
          37,
          38,
          39,
          40,
          41,
          42,
          43,
          44,
          45,
          46,
          47,
          48,
          49,
          50,
          51,
          52,
          53,
          54,
          55,
          56,
          57,
          58,
          59,
          60,
          61,
          62,
          63,
          64,
          65,
          66,
          67,
          68,
          69,
          70,
          71,
          72,
          73,
          74,
          75,
          76,
          77,
          78,
          79,
          80,
          81,
          82,
          83,
          84,
          85,
          86,
          87,
          88,
          89,
          90,
          91,
          92,
          93,
          94,
          95,
          96,
          97,
          98,
          99,
          100,
          101,
          102,
          103,
          104,
          105,
          106,
          107,
          108,
          109,
          110,
          111,
          112,
          113,
          114,
          115,
          116,
          117,
          118,
          119,
          120,
          121,
          122,
          123,
          124
        ],
        "AcquisitionTime": [
          "130538.722500",
          "130541.062500",
          "130543.402500",
          "130545.742500",
          "130548.082500",
          "130550.422500",
          "130552.762500",
          "130555.102500",
          "130557.442500",
          "130559.782500",
          "130602.122500",
          "130604.462500",
          "130606.802500",
          "130609.142500",
          "130611.482500",
          "130613.822500",
          "130616.162500",
          "130618.502500",
          "130620.842500",
          "130623.182500",
          "130625.522500",
          "130627.862500",
          "130630.202500",
          "130632.542500",
          "130634.882500",
          "130637.222500",
          "130639.562500",
          "130641.902500",
          "130644.242500",
          "130646.582500",
          "130648.922500",
          "130651.262500",
          "130653.602500",
          "130655.942500",
          "130658.282500",
          "130700.622500",
          "130702.962500",
          "130705.302500",
          "130707.642500",
          "130709.982500",
          "130712.322500",
          "130714.662500",
          "130717.002500",
          "130719.342500",
          "130721.682500",
          "130724.022500",
          "130726.362500",
          "130728.702500",
          "130731.042500",
          "130733.382500",
          "130735.722500",
          "130738.062500",
          "130740.402500",
          "130742.742500",
          "130745.082500",
          "130747.422500",
          "130749.762500",
          "130752.102500",
          "130754.442500",
          "130756.782500",
          "130759.122500",
          "130801.462500",
          "130803.802500",
          "130806.142500",
          "130808.482500",
          "130810.822500",
          "130813.162500",
          "130815.502500",
          "130817.842500",
          "130820.182500",
          "130822.522500",
          "130824.862500",
          "130827.202500",
          "130829.542500",
          "130831.882500",
          "130834.222500",
          "130836.562500",
          "130838.902500",
          "130841.242500",
          "130843.582500",
          "130845.922500",
          "130848.262500",
          "130850.602500",
          "130852.942500",
          "130855.282500",
          "130857.622500",
          "130859.962500",
          "130902.302500",
          "130904.642500",
          "130906.982500",
          "130909.322500",
          "130911.662500",
          "130914.002500",
          "130916.342500",
          "130918.682500",
          "130921.022500",
          "130923.362500",
          "130925.702500",
          "130928.042500",
          "130930.382500",
          "130932.722500",
          "130935.062500",
          "130937.402500",
          "130939.742500",
          "130942.082500",
          "130944.422500",
          "130946.762500",
          "130949.102500",
          "130951.442500",
          "130953.782500",
          "130956.122500",
          "130958.462500",
          "131000.802500",
          "131003.142500",
          "131005.482500",
          "131007.822500",
          "131010.162500",
          "131012.502500",
          "131014.842500",
          "131017.182500",
          "131019.522500",
          "131021.862500",
          "131024.202500",
          "131026.542500"
        ],
        "ContentTime": [
          "130629.283000",
          "130629.287000",
          "130629.289000",
          "130629.292000",
          "130629.301000",
          "130629.304000",
          "130629.306000",
          "130629.309000",
          "130629.312000",
          "130629.315000",
          "130629.317000",
          "130629.320000",
          "130629.323000",
          "130629.326000",
          "130629.328000",
          "130629.331000",
          "130629.334000",
          "130629.336000",
          "130629.339000",
          "130629.356000",
          "130629.359000",
          "130629.362000",
          "130729.277000",
          "130729.280000",
          "130729.283000",
          "130729.286000",
          "130729.289000",
          "130729.291000",
          "130729.294000",
          "130729.297000",
          "130729.300000",
          "130729.303000",
          "130729.306000",
          "130729.309000",
          "130729.311000",
          "130729.314000",
          "130729.317000",
          "130729.320000",
          "130729.323000",
          "130729.325000",
          "130729.328000",
          "130729.331000",
          "130729.334000",
          "130729.336000",
          "130729.339000",
          "130729.342000",
          "130729.345000",
          "130729.347000",
          "130829.276000",
          "130829.280000",
          "130829.291000",
          "130829.293000",
          "130829.296000",
          "130829.299000",
          "130829.302000",
          "130829.304000",
          "130829.307000",
          "130829.310000",
          "130829.312000",
          "130829.315000",
          "130829.318000",
          "130829.321000",
          "130829.324000",
          "130829.326000",
          "130829.329000",
          "130829.332000",
          "130829.334000",
          "130829.337000",
          "130829.340000",
          "130829.342000",
          "130829.345000",
          "130829.348000",
          "130829.351000",
          "130929.277000",
          "130929.280000",
          "130929.283000",
          "130929.286000",
          "130929.296000",
          "130929.299000",
          "130929.302000",
          "130929.304000",
          "130929.307000",
          "130929.314000",
          "130929.317000",
          "130929.320000",
          "130929.323000",
          "130929.326000",
          "130929.328000",
          "130929.331000",
          "130929.334000",
          "130929.337000",
          "130929.340000",
          "130929.343000",
          "130929.346000",
          "130929.348000",
          "130929.351000",
          "130929.353000",
          "130929.356000",
          "130929.359000",
          "131028.218000",
          "131028.222000",
          "131028.225000",
          "131028.228000",
          "131028.239000",
          "131028.243000",
          "131028.246000",
          "131028.249000",
          "131028.252000",
          "131028.255000",
          "131028.257000",
          "131028.260000",
          "131028.263000",
          "131028.266000",
          "131028.269000",
          "131028.272000",
          "131028.276000",
          "131028.279000",
          "131028.282000",
          "131028.284000",
          "131028.287000",
          "131028.292000",
          "131028.296000",
          "131028.298000",
          "131028.303000"
        ],
        "InstanceCreationTime": [
          "130629.283000",
          "130629.287000",
          "130629.289000",
          "130629.292000",
          "130629.301000",
          "130629.304000",
          "130629.306000",
          "130629.309000",
          "130629.312000",
          "130629.315000",
          "130629.317000",
          "130629.320000",
          "130629.323000",
          "130629.326000",
          "130629.328000",
          "130629.331000",
          "130629.334000",
          "130629.336000",
          "130629.339000",
          "130629.356000",
          "130629.359000",
          "130629.362000",
          "130729.277000",
          "130729.280000",
          "130729.283000",
          "130729.286000",
          "130729.289000",
          "130729.291000",
          "130729.294000",
          "130729.297000",
          "130729.300000",
          "130729.303000",
          "130729.306000",
          "130729.309000",
          "130729.311000",
          "130729.314000",
          "130729.317000",
          "130729.320000",
          "130729.323000",
          "130729.325000",
          "130729.328000",
          "130729.331000",
          "130729.334000",
          "130729.336000",
          "130729.339000",
          "130729.342000",
          "130729.345000",
          "130729.347000",
          "130829.276000",
          "130829.280000",
          "130829.291000",
          "130829.293000",
          "130829.296000",
          "130829.299000",
          "130829.302000",
          "130829.304000",
          "130829.307000",
          "130829.310000",
          "130829.312000",
          "130829.315000",
          "130829.318000",
          "130829.321000",
          "130829.324000",
          "130829.326000",
          "130829.329000",
          "130829.332000",
          "130829.334000",
          "130829.337000",
          "130829.340000",
          "130829.342000",
          "130829.345000",
          "130829.348000",
          "130829.351000",
          "130929.277000",
          "130929.280000",
          "130929.283000",
          "130929.286000",
          "130929.296000",
          "130929.299000",
          "130929.302000",
          "130929.304000",
          "130929.307000",
          "130929.314000",
          "130929.317000",
          "130929.320000",
          "130929.323000",
          "130929.326000",
          "130929.328000",
          "130929.331000",
          "130929.334000",
          "130929.337000",
          "130929.340000",
          "130929.343000",
          "130929.346000",
          "130929.348000",
          "130929.351000",
          "130929.353000",
          "130929.356000",
          "130929.359000",
          "131028.218000",
          "131028.222000",
          "131028.225000",
          "131028.228000",
          "131028.239000",
          "131028.243000",
          "131028.246000",
          "131028.249000",
          "131028.252000",
          "131028.255000",
          "131028.257000",
          "131028.260000",
          "131028.263000",
          "131028.266000",
          "131028.269000",
          "131028.272000",
          "131028.276000",
          "131028.279000",
          "131028.282000",
          "131028.284000",
          "131028.287000",
          "131028.292000",
          "131028.296000",
          "131028.298000",
          "131028.303000"
        ],
        "InstanceNumber": [
          1,
          2,
          3,
          4,
          5,
          6,
          7,
          8,
          9,
          10,
          11,
          12,
          13,
          14,
          15,
          16,
          17,
          18,
          19,
          20,
          21,
          22,
          23,
          24,
          25,
          26,
          27,
          28,
          29,
          30,
          31,
          32,
          33,
          34,
          35,
          36,
          37,
          38,
          39,
          40,
          41,
          42,
          43,
          44,
          45,
          46,
          47,
          48,
          49,
          50,
          51,
          52,
          53,
          54,
          55,
          56,
          57,
          58,
          59,
          60,
          61,
          62,
          63,
          64,
          65,
          66,
          67,
          68,
          69,
          70,
          71,
          72,
          73,
          74,
          75,
          76,
          77,
          78,
          79,
          80,
          81,
          82,
          83,
          84,
          85,
          86,
          87,
          88,
          89,
          90,
          91,
          92,
          93,
          94,
          95,
          96,
          97,
          98,
          99,
          100,
          101,
          102,
          103,
          104,
          105,
          106,
          107,
          108,
          109,
          110,
          111,
          112,
          113,
          114,
          115,
          116,
          117,
          118,
          119,
          120,
          121,
          122,
          123,
          124
        ],
        "LargestImagePixelValue": [
          2087,
          1833,
          2617,
          2589,
          1767,
          1773,
          1716,
          2316,
          2729,
          2228,
          1806,
          1972,
          1670,
          1946,
          2309,
          2085,
          1724,
          2074,
          1738,
          1639,
          2063,
          2341,
          2038,
          2350,
          1703,
          2052,
          2131,
          2085,
          2044,
          1967,
          1693,
          2150,
          2067,
          2561,
          1936,
          1785,
          2215,
          2372,
          2118,
          2494,
          2131,
          1749,
          2060,
          1757,
          1707,
          2015,
          2283,
          1699,
          1836,
          2287,
          1915,
          1691,
          2443,
          1961,
          1728,
          1838,
          1694,
          1969,
          2653,
          1799,
          2242,
          2258,
          1887,
          2051,
          2222,
          1947,
          2477,
          1838,
          1865,
          1718,
          1823,
          1701,
          2392,
          1705,
          2535,
          2651,
          2066,
          2004,
          1756,
          2239,
          1761,
          1733,
          1748,
          1804,
          1810,
          1846,
          2502,
          1781,
          2145,
          2573,
          1994,
          1773,
          2439,
          1742,
          1796,
          1779,
          2211,
          2072,
          1800,
          2398,
          2044,
          1816,
          2048,
          1785,
          2346,
          1670,
          2007,
          2318,
          2450,
          2414,
          1793,
          2025,
          2359,
          1704,
          2143,
          2444,
          1700,
          2261,
          1709,
          1782,
          2141,
          1743,
          1738,
          2210
        ],
        "WindowCenter": [
          786.0,
          786.0,
          787.0,
          786.0,
          785.0,
          786.0,
          783.0,
          785.0,
          785.0,
          786.0,
          783.0,
          784.0,
          782.0,
          784.0,
          783.0,
          782.0,
          783.0,
          784.0,
          783.0,
          784.0,
          785.0,
          785.0,
          781.0,
          784.0,
          780.0,
          783.0,
          783.0,
          783.0,
          781.0,
          783.0,
          784.0,
          787.0,
          785.0,
          784.0,
          784.0,
          784.0,
          783.0,
          784.0,
          782.0,
          783.0,
          781.0,
          785.0,
          782.0,
          784.0,
          783.0,
          781.0,
          783.0,
          781.0,
          782.0,
          781.0,
          782.0,
          781.0,
          782.0,
          782.0,
          782.0,
          780.0,
          784.0,
          785.0,
          784.0,
          784.0,
          784.0,
          786.0,
          784.0,
          786.0,
          787.0,
          786.0,
          787.0,
          784.0,
          787.0,
          785.0,
          786.0,
          786.0,
          785.0,
          781.0,
          781.0,
          783.0,
          778.0,
          782.0,
          781.0,
          783.0,
          782.0,
          783.0,
          783.0,
          785.0,
          785.0,
          790.0,
          787.0,
          788.0,
          789.0,
          788.0,
          792.0,
          789.0,
          790.0,
          785.0,
          782.0,
          784.0,
          784.0,
          786.0,
          783.0,
          784.0,
          782.0,
          783.0,
          785.0,
          788.0,
          785.0,
          785.0,
          784.0,
          787.0,
          783.0,
          785.0,
          783.0,
          784.0,
          788.0,
          788.0,
          786.0,
          786.0,
          784.0,
          784.0,
          785.0,
          785.0,
          784.0,
          785.0,
          784.0,
          786.0
        ],
        "WindowWidth": [
          1661.0,
          1659.0,
          1662.0,
          1661.0,
          1654.0,
          1659.0,
          1653.0,
          1657.0,
          1658.0,
          1657.0,
          1653.0,
          1655.0,
          1649.0,
          1654.0,
          1652.0,
          1648.0,
          1650.0,
          1656.0,
          1651.0,
          1654.0,
          1658.0,
          1655.0,
          1647.0,
          1655.0,
          1646.0,
          1651.0,
          1653.0,
          1650.0,
          1648.0,
          1652.0,
          1655.0,
          1660.0,
          1658.0,
          1656.0,
          1654.0,
          1653.0,
          1652.0,
          1654.0,
          1648.0,
          1652.0,
          1646.0,
          1658.0,
          1649.0,
          1653.0,
          1651.0,
          1648.0,
          1651.0,
          1646.0,
          1648.0,
          1647.0,
          1646.0,
          1646.0,
          1649.0,
          1648.0,
          1647.0,
          1646.0,
          1652.0,
          1655.0,
          1655.0,
          1654.0,
          1655.0,
          1657.0,
          1654.0,
          1657.0,
          1660.0,
          1660.0,
          1660.0,
          1657.0,
          1660.0,
          1655.0,
          1660.0,
          1659.0,
          1657.0,
          1646.0,
          1647.0,
          1650.0,
          1637.0,
          1647.0,
          1648.0,
          1651.0,
          1649.0,
          1652.0,
          1650.0,
          1656.0,
          1656.0,
          1667.0,
          1663.0,
          1663.0,
          1668.0,
          1667.0,
          1670.0,
          1668.0,
          1669.0,
          1656.0,
          1651.0,
          1652.0,
          1655.0,
          1658.0,
          1651.0,
          1655.0,
          1649.0,
          1650.0,
          1657.0,
          1664.0,
          1656.0,
          1655.0,
          1653.0,
          1660.0,
          1650.0,
          1657.0,
          1652.0,
          1654.0,
          1661.0,
          1663.0,
          1659.0,
          1659.0,
          1653.0,
          1655.0,
          1654.0,
          1656.0,
          1654.0,
          1655.0,
          1655.0,
          1658.0
        ]
      },
      "slices": {}
    }
  },
  "dummy_trs": 0,
  "dvars_nstd": 41.00814520073171,
  "dvars_std": 1.2841596999186988,
  "dvars_vstd": 1.0237848821951216,
  "efc": 0.5785235236305792,
  "fber": 1409.7767333984375,
  "fd_mean": 0.5788289738109814,
  "fd_num": 116,
  "fd_perc": 93.54838709677419,
  "fwhm_avg": 1.864966473092131,
  "fwhm_x": 1.7751766666666666,
  "fwhm_y": 2.06625,
  "fwhm_z": 1.7534727526097262,
  "gcor": 0.0526753,
  "gsr_x": -0.002448122249916196,
  "gsr_y": 0.040445152670145035,
  "provenance": {
    "md5sum": "cd0845290c80bb5e9b8171052a661e1e",
    "settings": {
      "fd_thres": 0.2,
      "testing": false
    },
    "software": "mriqc",
    "version": "22.0.1",
    "webapi_port": null,
    "webapi_url": "https://mriqc.nimh.nih.gov/api/v1"
  },
  "size_t": 124,
  "size_x": 64,
  "size_y": 64,
  "size_z": 34,
  "snr": 5.78729001917756,
  "spacing_tr": 2.3399999141693115,
  "spacing_x": 3.0,
  "spacing_y": 3.0,
  "spacing_z": 3.299999952316284,
  "summary_bg_k": 56.01460812090281,
  "summary_bg_mad": 9.84017385453199,
  "summary_bg_mean": 37.19697189331055,
  "summary_bg_median": 22.516128540039062,
  "summary_bg_n": 71029.0,
  "summary_bg_p05": 12.080644607543945,
  "summary_bg_p95": 90.74838714599588,
  "summary_bg_stdv": 62.01227951049805,
  "summary_fg_k": 0.8101219953540566,
  "summary_fg_mad": 150.69334004216046,
  "summary_fg_mean": 867.6705932617188,
  "summary_fg_median": 865.6451416015625,
  "summary_fg_n": 35402.0,
  "summary_fg_p05": 632.1451416015625,
  "summary_fg_p95": 1103.9257568359374,
  "summary_fg_stdv": 149.5748291015625,
  "tsnr": 52.80289472825825
}