{
  "aor": 0.00810640625,
  "aqi": 0.011560772734374999,
  "bids_meta": {
    "AcquisitionMatrixPE": 64,
    "AcquisitionNumber": 1,
    "AcquisitionTime": "12:53:52.192500",
    "BandwidthPerPixelPhaseEncode": 24.038,
    "BaseResolution": 64,
    "BodyPartExamined": "HEAD",
    "ConsistencyInfo": "N4_VD13A_LATEST_20120616",
    "ConversionSoftware": "dcm2niix",
    "ConversionSoftwareVersion": "v1.0.20181125  GCC6.3.0",
    "DerivedVendorReportedEchoSpacing": 0.000650012,
    "DeviceSerialNumber": "45250",
    "DwellTime": 4.6e-06,
    "EchoTime": 0.033,
    "EchoTrainLength": 64,
    "EffectiveEchoSpacing": 0.000650012,
    "FlipAngle": 90,
    "ImageOrientationPatientDICOM": [
      0.998186,
      8.03457e-05,
      0.0602048,
      0.020909,
      0.937291,
      -0.34792
    ],
    "ImageType": [
      "ORIGINAL",
      "PRIMARY",
      "M",
      "ND",
      "NORM",
      "MOSAIC"
    ],
    "ImagingFrequency": 123.214,
    "InPlanePhaseEncodingDirectionDICOM": "COL",
    "InstitutionAddress": "Kopernikusstr._26_Graz_Graz_AT_8010",
    "InstitutionName": "KFU",
    "InstitutionalDepartmentName": "Department",
    "MRAcquisitionType": "2D",
    "MagneticFieldStrength": 3,
    "Manufacturer": "Siemens",
    "ManufacturersModelName": "Skyra",
    "Modality": "MR",
    "PartialFourier": 1,
    "PatientPosition": "HFS",
    "PercentPhaseFOV": 100,
    "PhaseEncodingDirection": "j-",
    "PhaseEncodingSteps": 64,
    "PhaseResolution": 1,
    "PixelBandwidth": 1700,
    "ProcedureStepDescription": "KFU_Entw-Psy",
    "ProtocolName": "fMRI_1",
    "PulseSequenceDetails": "%SiemensSeq%_ep2d_pace",
    "ReceiveCoilActiveElements": "HE1-4",
    "ReceiveCoilName": "HeadNeck_20",
    "ReconMatrixPE": 64,
    "RepetitionTime": 2.34,
    "SAR": 0.190959,
    "ScanOptions": "FS",
    "ScanningSequence": "EP",
    "SequenceName": "_epfid2d1_64",
    "SequenceVariant": "SK",
    "SeriesDescription": "fMRI_1",
    "SeriesNumber": 2,
    "ShimSetting": [
      -1483,
      -3547,
      -4306,
      415,
      584,
      283,
      -55,
      -176
    ],
    "SliceThickness": 3,
    "SliceTiming": [
      2.2525,
      2.1825,
      2.115,
      2.0475,
      1.9775,
      1.91,
      1.8425,
      1.775,
      1.705,
      1.6375,
      1.57,
      1.5,
      1.4325,
      1.365,
      1.2975,
      1.2275,
      1.16,
      1.0925,
      1.0225,
      0.955,
      0.8875,
      0.8175,
      0.75,
      0.6825,
      0.615,
      0.545,
      0.4775,
      0.41,
      0.34,
      0.2725,
      0.205,
      0.1375,
      0.0675,
      0
    ],
    "SoftwareVersions": "syngo_MR_D13",
    "SpacingBetweenSlices": 3.3,
    "StationName": "FBMTMR1",
    "TaskName": "read",
    "TotalReadoutTime": 0.0409508,
    "TxRefAmp": 434.004,
    "dataset": "ds003126",
    "dcmmeta_affine": [
      [
        -2.994558095932007,
        0.06272711604833603,
        0.18630927801132202,
        92.3791275024414
      ],
      [
        -0.0002410371816949919,
        2.8118736743927,
        -1.1502059698104858,
        -98.31237030029297
      ],
      [
        0.18061432242393494,
        1.0437586307525635,
        3.08744478225708,
        -49.76994323730469
      ],
      [
        0.0,
        0.0,
        0.0,
        1.0
      ]
    ],
    "dcmmeta_reorient_transform": [
      [
        0.0,
        -1.0,
        0.0,
        63.0
      ],
      [
        1.0,
        0.0,
        0.0,
        0.0
      ],
      [
        0.0,
        0.0,
        1.0,
        0.0
      ],
      [
        0.0,
        0.0,
        0.0,
        1.0
      ]
    ],
    "dcmmeta_shape": [
      64,
      64,
      34,
      128
    ],
    "dcmmeta_slice_dim": 2,
    "dcmmeta_version": 0.6,
    "global": {
      "const": {
        "AcquisitionMatrix": [
          64,
          0,
          0,
          64
        ],
        "AngioFlag": "N",
        "BitsAllocated": 16,
        "BitsStored": 12,
        "BodyPartExamined": "HEAD",
        "Columns": 384,
        "EchoNumbers": 1,
        "EchoTime": 33.0,
        "EchoTrainLength": 64,
        "FlipAngle": 90.0,
        "HighBit": 11,
        "ImageOrientationPatient": [
          0.99818604412549,
          8.034572652e-05,
          0.06020477437606,
          0.02090903878865,
          0.93729120248785,
          -0.34791955081
        ],
        "ImagePositionPatient": [
          -585.49657895678,
          -528.77400848321,
          154.08994409795
        ],
        "ImageType": [
          "ORIGINAL",
          "PRIMARY",
          "M",
          "ND",
          "NORM",
          "MOSAIC"
        ],
        "ImagedNucleus": "1H",
        "ImagingFrequency": 123.214278,
        "InPlanePhaseEncodingDirection": "COL",
        "MRAcquisitionType": "2D",
        "MagneticFieldStrength": 3.0,
        "Manufacturer": "SIEMENS",
        "ManufacturerModelName": "Skyra",
        "Modality": "MR",
        "NumberOfAverages": 1.0,
        "NumberOfPhaseEncodingSteps": 64,
        "PercentPhaseFieldOfView": 100.0,
        "PercentSampling": 100.0,
        "PerformedProcedureStepStartTime": "122643.518000",
        "PhotometricInterpretation": "MONOCHROME2",
        "PixelBandwidth": 1700.0,
        "PixelRepresentation": 0,
        "PixelSpacing": [
          3.0,
          3.0
        ],
        "ProtocolName": "fMRI_1",
        "RepetitionTime": 2340.0,
        "Rows": 384,
        "SAR": 0.19095913037248,
        "SamplesPerPixel": 1,
        "ScanOptions": "FS",
        "ScanningSequence": "EP",
        "SequenceName": "*epfid2d1_64",
        "SequenceVariant": "SK",
        "SeriesDescription": "fMRI_1",
        "SeriesNumber": 2,
        "SeriesTime": "125443.587000",
        "SliceLocation": -7.0822376268981,
        "SliceThickness": 3.0,
        "SmallestImagePixelValue": 0,
        "SoftwareVersions": "syngo MR D13",
        "SpacingBetweenSlices": 3.2999999218483,
        "SpecificCharacterSet": "ISO_IR 100",
        "StudyID": "1",
        "StudyTime": "122643.470000",
        "TransmitCoilName": "Body",
        "VariableFlipAngleFlag": "N",
        "WindowCenterWidthExplanation": "Algo1",
        "dBdt": 0.0
      },
      "slices": {}
    },
    "modality": "bold",
    "run_id": 1,
    "session_id": "2",
    "subject_id": "047EPKL014037",
    "task_id": "read",
    "time": {
      "samples": {
        "AcquisitionNumber": [
          1,
          2,
          3,
          4,
          5,
          6,
          7,
          8,
          9,
          10,
          11,
          12,
          13,
          14,
          15,
          16,
          17,
          18,
          19,
          20,
          21,
          22,
          23,
          24,
          25,
          26,
          27,
          28,
          29,
          30,
          31,
          32,
          33,
          34,
          35,
          36,
          37,
          38,
          39,
          40,
          41,
          42,
          43,
          44,
          45,
          46,
          47,
          48,
          49,
          50,
          51,
          52,
          53,
          54,
          55,
          56,
          57,
          58,
          59,
          60,
          61,
          62,
          63,
          64,
          65,
          66,
          67,
          68,
          69,
          70,
          71,
          72,
          73,
          74,
          75,
          76,
          77,
          78,
          79,
          80,
          81,
          82,
          83,
          84,
          85,
          86,
          87,
          88,
          89,
          90,
          91,
          92,
          93,
          94,
          95,
          96,
          97,
          98,
          99,
          100,
          101,
          102,
          103,
          104,
          105,
          106,
          107,
          108,
          109,
          110,
          111,
          112,
          113,
          114,
          115,
          116,
          117,
          118,
          119,
          120,
          121,
          122,
          123,
          124,
          125,
          126,
          127,
          128
        ],
        "AcquisitionTime": [
          "125352.192500",
          "125354.532500",
          "125356.872500",
          "125359.212500",
          "125401.552500",
          "125403.892500",
          "125406.232500",
          "125408.572500",
          "125410.912500",
          "125413.252500",
          "125415.592500",
          "125417.932500",
          "125420.272500",
          "125422.612500",
          "125424.952500",
          "125427.292500",
          "125429.632500",
          "125431.972500",
          "125434.312500",
          "125436.652500",
          "125438.992500",
          "125441.332500",
          "125443.672500",
          "125446.012500",
          "125448.352500",
          "125450.692500",
          "125453.032500",
          "125455.372500",
          "125457.712500",
          "125500.052500",
          "125502.392500",
          "125504.732500",
          "125507.072500",
          "125509.412500",
          "125511.752500",
          "125514.092500",
          "125516.432500",
          "125518.772500",
          "125521.112500",
          "125523.452500",
          "125525.792500",
          "125528.132500",
          "125530.472500",
          "125532.812500",
          "125535.152500",
          "125537.492500",
          "125539.832500",
          "125542.172500",
          "125544.512500",
          "125546.852500",
          "125549.192500",
          "125551.532500",
          "125553.872500",
          "125556.212500",
          "125558.552500",
          "125600.892500",
          "125603.232500",
          "125605.572500",
          "125607.912500",
          "125610.252500",
          "125612.592500",
          "125614.932500",
          "125617.272500",
          "125619.612500",
          "125621.952500",
          "125624.292500",
          "125626.632500",
          "125628.972500",
          "125631.312500",
          "125633.652500",
          "125635.992500",
          "125638.332500",
          "125640.672500",
          "125643.012500",
          "125645.352500",
          "125647.692500",
          "125650.032500",
          "125652.372500",
          "125654.712500",
          "125657.052500",
          "125659.392500",
          "125701.732500",
          "125704.072500",
          "125706.412500",
          "125708.752500",
          "125711.092500",
          "125713.432500",
          "125715.772500",
          "125718.112500",
          "125720.452500",
          "125722.792500",
          "125725.132500",
          "125727.472500",
          "125729.812500",
          "125732.152500",
          "125734.492500",
          "125736.832500",
          "125739.172500",
          "125741.512500",
          "125743.852500",
          "125746.192500",
          "125748.532500",
          "125750.872500",
          "125753.212500",
          "125755.552500",
          "125757.892500",
          "125800.232500",
          "125802.572500",
          "125804.912500",
          "125807.252500",
          "125809.592500",
          "125811.932500",
          "125814.272500",
          "125816.612500",
          "125818.952500",
          "125821.292500",
          "125823.632500",
          "125825.972500",
          "125828.312500",
          "125830.652500",
          "125832.992500",
          "125835.332500",
          "125837.672500",
          "125840.012500",
          "125842.352500",
          "125844.692500",
          "125847.032500",
          "125849.372500"
        ],
        "ContentTime": [
          "125443.591000",
          "125443.595000",
          "125443.597000",
          "125443.600000",
          "125443.603000",
          "125443.606000",
          "125443.609000",
          "125443.611000",
          "125443.614000",
          "125443.617000",
          "125443.620000",
          "125443.623000",
          "125443.626000",
          "125443.629000",
          "125443.632000",
          "125443.634000",
          "125443.637000",
          "125443.640000",
          "125443.643000",
          "125443.646000",
          "125443.649000",
          "125443.658000",
          "125543.585000",
          "125543.588000",
          "125543.591000",
          "125543.594000",
          "125543.596000",
          "125543.599000",
          "125543.602000",
          "125543.604000",
          "125543.607000",
          "125543.609000",
          "125543.612000",
          "125543.615000",
          "125543.617000",
          "125543.620000",
          "125543.623000",
          "125543.626000",
          "125543.629000",
          "125543.631000",
          "125543.634000",
          "125543.637000",
          "125543.640000",
          "125543.643000",
          "125543.646000",
          "125543.654000",
          "125543.657000",
          "125543.659000",
          "125643.585000",
          "125643.600000",
          "125643.603000",
          "125643.605000",
          "125643.608000",
          "125643.610000",
          "125643.613000",
          "125643.615000",
          "125643.618000",
          "125643.621000",
          "125643.623000",
          "125643.626000",
          "125643.628000",
          "125643.631000",
          "125643.634000",
          "125643.636000",
          "125643.639000",
          "125643.641000",
          "125643.644000",
          "125643.647000",
          "125643.649000",
          "125643.652000",
          "125643.655000",
          "125643.658000",
          "125643.661000",
          "125643.665000",
          "125743.584000",
          "125743.587000",
          "125743.590000",
          "125743.593000",
          "125743.595000",
          "125743.598000",
          "125743.601000",
          "125743.603000",
          "125743.606000",
          "125743.609000",
          "125743.612000",
          "125743.614000",
          "125743.617000",
          "125743.620000",
          "125743.623000",
          "125743.625000",
          "125743.628000",
          "125743.631000",
          "125743.634000",
          "125743.637000",
          "125743.640000",
          "125743.642000",
          "125743.645000",
          "125743.648000",
          "125743.651000",
          "125843.585000",
          "125843.589000",
          "125843.591000",
          "125843.594000",
          "125843.597000",
          "125843.599000",
          "125843.602000",
          "125843.605000",
          "125843.608000",
          "125843.611000",
          "125843.614000",
          "125843.617000",
          "125843.620000",
          "125843.622000",
          "125843.625000",
          "125843.628000",
          "125843.631000",
          "125843.634000",
          "125843.637000",
          "125843.639000",
          "125843.642000",
          "125843.644000",
          "125843.647000",
          "125843.650000",
          "125843.653000",
          "125843.656000",
          "125851.070000",
          "125851.074000",
          "125851.077000"
        ],
        "InstanceCreationTime": [
          "125443.591000",
          "125443.595000",
          "125443.597000",
          "125443.600000",
          "125443.603000",
          "125443.606000",
          "125443.609000",
          "125443.611000",
          "125443.614000",
          "125443.617000",
          "125443.620000",
          "125443.623000",
          "125443.626000",
          "125443.629000",
          "125443.632000",
          "125443.634000",
          "125443.637000",
          "125443.640000",
          "125443.643000",
          "125443.646000",
          "125443.649000",
          "125443.658000",
          "125543.585000",
          "125543.588000",
          "125543.591000",
          "125543.594000",
          "125543.596000",
          "125543.599000",
          "125543.602000",
          "125543.604000",
          "125543.607000",
          "125543.609000",
          "125543.612000",
          "125543.615000",
          "125543.617000",
          "125543.620000",
          "125543.623000",
          "125543.626000",
          "125543.629000",
          "125543.631000",
          "125543.634000",
          "125543.637000",
          "125543.640000",
          "125543.643000",
          "125543.646000",
          "125543.654000",
          "125543.657000",
          "125543.659000",
          "125643.585000",
          "125643.600000",
          "125643.603000",
          "125643.605000",
          "125643.608000",
          "125643.610000",
          "125643.613000",
          "125643.615000",
          "125643.618000",
          "125643.621000",
          "125643.623000",
          "125643.626000",
          "125643.628000",
          "125643.631000",
          "125643.634000",
          "125643.636000",
          "125643.639000",
          "125643.641000",
          "125643.644000",
          "125643.647000",
          "125643.649000",
          "125643.652000",
          "125643.655000",
          "125643.658000",
          "125643.661000",
          "125643.665000",
          "125743.584000",
          "125743.587000",
          "125743.590000",
          "125743.593000",
          "125743.595000",
          "125743.598000",
          "125743.601000",
          "125743.603000",
          "125743.606000",
          "125743.609000",
          "125743.612000",
          "125743.614000",
          "125743.617000",
          "125743.620000",
          "125743.623000",
          "125743.625000",
          "125743.628000",
          "125743.631000",
          "125743.634000",
          "125743.637000",
          "125743.640000",
          "125743.642000",
          "125743.645000",
          "125743.648000",
          "125743.651000",
          "125843.585000",
          "125843.589000",
          "125843.591000",
          "125843.594000",
          "125843.597000",
          "125843.599000",
          "125843.602000",
          "125843.605000",
          "125843.608000",
          "125843.611000",
          "125843.614000",
          "125843.617000",
          "125843.620000",
          "125843.622000",
          "125843.625000",
          "125843.628000",
          "125843.631000",
          "125843.634000",
          "125843.637000",
          "125843.639000",
          "125843.642000",
          "125843.644000",
          "125843.647000",
          "125843.650000",
          "125843.653000",
          "125843.656000",
          "125851.070000",
          "125851.074000",
          "125851.077000"
        ],
        "InstanceNumber": [
          1,
          2,
          3,
          4,
          5,
          6,
          7,
          8,
          9,
          10,
          11,
          12,
          13,
          14,
          15,
          16,
          17,
          18,
          19,
          20,
          21,
          22,
          23,
          24,
          25,
          26,
          27,
          28,
          29,
          30,
          31,
          32,
          33,
          34,
          35,
          36,
          37,
          38,
          39,
          40,
          41,
          42,
          43,
          44,
          45,
          46,
          47,
          48,
          49,
          50,
          51,
          52,
          53,
          54,
          55,
          56,
          57,
          58,
          59,
          60,
          61,
          62,
          63,
          64,
          65,
          66,
          67,
          68,
          69,
          70,
          71,
          72,
          73,
          74,
          75,
          76,
          77,
          78,
          79,
          80,
          81,
          82,
          83,
          84,
          85,
          86,
          87,
          88,
          89,
          90,
          91,
          92,
          93,
          94,
          95,
          96,
          97,
          98,
          99,
          100,
          101,
          102,
          103,
          104,
          105,
          106,
          107,
          108,
          109,
          110,
          111,
          112,
          113,
          114,
          115,
          116,
          117,
          118,
          119,
          120,
          121,
          122,
          123,
          124,
          125,
          126,
          127,
          128
        ],
        "LargestImagePixelValue": [
          2188,
          2004,
          1952,
          2057,
          2064,
          1975,
          2423,
          1871,
          1933,
          2094,
          2001,
          1914,
          1973,
          1998,
          1916,
          1956,
          1932,
          2073,
          1808,
          1942,
          1881,
          1884,
          1944,
          1933,
          2177,
          1884,
          1896,
          2360,
          1941,
          2213,
          1969,
          2154,
          1892,
          1966,
          1934,
          1881,
          1845,
          1895,
          1816,
          1861,
          1818,
          1871,
          1917,
          1852,
          1863,
          1915,
          1843,
          1910,
          2058,
          1873,
          1849,
          1946,
          2220,
          1935,
          1889,
          1938,
          1881,
          1840,
          1683,
          1839,
          1809,
          2008,
          1838,
          1916,
          1824,
          2030,
          1981,
          1921,
          1824,
          1756,
          1771,
          1853,
          1806,
          1920,
          1981,
          2188,
          1898,
          1969,
          1923,
          2067,
          1920,
          1916,
          1885,
          1915,
          1873,
          1880,
          1885,
          1847,
          1886,
          1887,
          2268,
          1977,
          2363,
          1827,
          1877,
          2031,
          1927,
          1850,
          1880,
          1871,
          1910,
          1905,
          1923,
          1941,
          1818,
          2735,
          2123,
          1821,
          1741,
          1799,
          1853,
          2119,
          2021,
          1822,
          2091,
          2200,
          1863,
          2165,
          1939,
          1825,
          1845,
          1892,
          1874,
          2037,
          1910,
          1833,
          1822,
          1838
        ],
        "WindowCenter": [
          796.0,
          794.0,
          795.0,
          797.0,
          796.0,
          797.0,
          796.0,
          797.0,
          794.0,
          793.0,
          793.0,
          795.0,
          794.0,
          795.0,
          794.0,
          791.0,
          787.0,
          788.0,
          788.0,
          790.0,
          786.0,
          785.0,
          785.0,
          784.0,
          784.0,
          785.0,
          785.0,
          785.0,
          783.0,
          785.0,
          784.0,
          784.0,
          783.0,
          782.0,
          781.0,
          781.0,
          780.0,
          781.0,
          781.0,
          781.0,
          781.0,
          781.0,
          782.0,
          782.0,
          780.0,
          783.0,
          781.0,
          782.0,
          782.0,
          782.0,
          781.0,
          779.0,
          778.0,
          778.0,
          780.0,
          781.0,
          781.0,
          780.0,
          776.0,
          778.0,
          778.0,
          780.0,
          779.0,
          778.0,
          777.0,
          784.0,
          783.0,
          782.0,
          779.0,
          781.0,
          777.0,
          780.0,
          781.0,
          781.0,
          780.0,
          779.0,
          777.0,
          778.0,
          778.0,
          778.0,
          780.0,
          779.0,
          780.0,
          780.0,
          780.0,
          780.0,
          780.0,
          780.0,
          781.0,
          782.0,
          783.0,
          781.0,
          782.0,
          781.0,
          779.0,
          779.0,
          778.0,
          777.0,
          778.0,
          779.0,
          779.0,
          779.0,
          779.0,
          780.0,
          778.0,
          781.0,
          779.0,
          780.0,
          781.0,
          788.0,
          785.0,
          784.0,
          786.0,
          781.0,
          781.0,
          782.0,
          779.0,
          780.0,
          779.0,
          780.0,
          779.0,
          780.0,
          779.0,
          779.0,
          781.0,
          782.0,
          780.0,
          780.0
        ],
        "WindowWidth": [
          1687.0,
          1684.0,
          1685.0,
          1692.0,
          1688.0,
          1690.0,
          1690.0,
          1689.0,
          1684.0,
          1682.0,
          1682.0,
          1683.0,
          1682.0,
          1687.0,
          1684.0,
          1675.0,
          1665.0,
          1668.0,
          1665.0,
          1672.0,
          1663.0,
          1659.0,
          1660.0,
          1659.0,
          1658.0,
          1660.0,
          1661.0,
          1660.0,
          1654.0,
          1660.0,
          1657.0,
          1658.0,
          1656.0,
          1652.0,
          1649.0,
          1648.0,
          1647.0,
          1650.0,
          1650.0,
          1648.0,
          1648.0,
          1648.0,
          1650.0,
          1651.0,
          1647.0,
          1656.0,
          1650.0,
          1651.0,
          1654.0,
          1651.0,
          1650.0,
          1645.0,
          1642.0,
          1643.0,
          1646.0,
          1649.0,
          1649.0,
          1646.0,
          1637.0,
          1642.0,
          1642.0,
          1645.0,
          1643.0,
          1641.0,
          1638.0,
          1656.0,
          1653.0,
          1654.0,
          1644.0,
          1650.0,
          1639.0,
          1647.0,
          1649.0,
          1650.0,
          1646.0,
          1645.0,
          1639.0,
          1641.0,
          1641.0,
          1642.0,
          1646.0,
          1645.0,
          1645.0,
          1646.0,
          1645.0,
          1645.0,
          1646.0,
          1647.0,
          1650.0,
          1652.0,
          1653.0,
          1649.0,
          1650.0,
          1648.0,
          1644.0,
          1644.0,
          1643.0,
          1638.0,
          1640.0,
          1643.0,
          1643.0,
          1642.0,
          1644.0,
          1645.0,
          1641.0,
          1648.0,
          1644.0,
          1648.0,
          1651.0,
          1663.0,
          1658.0,
          1658.0,
          1661.0,
          1650.0,
          1649.0,
          1650.0,
          1643.0,
          1647.0,
          1644.0,
          1644.0,
          1643.0,
          1645.0,
          1643.0,
          1643.0,
          1648.0,
          1650.0,
          1645.0,
          1647.0
        ]
      },
      "slices": {}
    }
  },
  "dummy_trs": 0,
  "dvars_nstd": 37.25667249125983,
  "dvars_std": 1.313590082125984,
  "dvars_vstd": 1.0697245760629917,
  "efc": 0.5742766939627935,
  "fber": 1478.040771484375,
  "fd_mean": 0.5737771769335769,
  "fd_num": 112,
  "fd_perc": 87.5,
  "fwhm_avg": 1.8351047558305924,
  "fwhm_x": 1.7401733333333331,
  "fwhm_y": 2.0303166666666668,
  "fwhm_z": 1.734824267491778,
  "gcor": 0.209288,
  "gsr_x": 0.00018839040421880782,
  "gsr_y": 0.04049382358789444,
  "provenance": {
    "md5sum": "5c9258f61b975c4ba8ccec743436dc37",
    "settings": {
      "fd_thres": 0.2,
      "testing": false
    },
    "software": "mriqc",
    "version": "22.0.1",
    "webapi_port": null,
    "webapi_url": "https://mriqc.nimh.nih.gov/api/v1"
  },
  "size_t": 128,
  "size_x": 64,
  "size_y": 64,
  "size_z": 34,
  "snr": 5.961447916803464,
  "spacing_tr": 2.3399999141693115,
  "spacing_x": 3.0,
  "spacing_y": 3.0,
  "spacing_z": 3.299999952316284,
  "summary_bg_k": 62.8506479815901,
  "summary_bg_mad": 9.509503292133587,
  "summary_bg_mean": 35.794410705566406,
  "summary_bg_median": 22.15625,
  "summary_bg_n": 71807.0,
  "summary_bg_p05": 11.96875,
  "summary_bg_p95": 85.57109374999993,
  "summary_bg_stdv": 58.535186767578125,
  "summary_fg_k": 0.8878812529686915,
  "summary_fg_mad": 146.43013473709235,
  "summary_fg_mean": 872.8054809570312,
  "summary_fg_median": 870.40625,
  "summary_fg_n": 34881.0,
  "summary_fg_p05": 644.9609375,
  "summary_fg_p95": 1105.5859375,
  "summary_fg_stdv": 146.00375366210938,
  "tsnr": 44.506054509663954
}