{
  "aor": 0.0020366666666666667,
  "aqi": 0.009814423100775193,
  "bids_meta": {
    "AcquisitionMatrixPE": 64,
    "AcquisitionNumber": 1,
    "AcquisitionTime": "12:59:43.755000",
    "BandwidthPerPixelPhaseEncode": 24.038,
    "BaseResolution": 64,
    "BodyPartExamined": "HEAD",
    "ConsistencyInfo": "N4_VD13A_LATEST_20120616",
    "ConversionSoftware": "dcm2niix",
    "ConversionSoftwareVersion": "v1.0.20181125  GCC6.3.0",
    "DerivedVendorReportedEchoSpacing": 0.000650012,
    "DeviceSerialNumber": "45250",
    "DwellTime": 4.6e-06,
    "EchoTime": 0.033,
    "EchoTrainLength": 64,
    "EffectiveEchoSpacing": 0.000650012,
    "FlipAngle": 90,
    "ImageOrientationPatientDICOM": [
      0.998186,
      8.03457e-05,
      0.0602048,
      0.020909,
      0.937291,
      -0.34792
    ],
    "ImageType": [
      "ORIGINAL",
      "PRIMARY",
      "M",
      "ND",
      "NORM",
      "MOSAIC"
    ],
    "ImagingFrequency": 123.214,
    "InPlanePhaseEncodingDirectionDICOM": "COL",
    "InstitutionAddress": "Kopernikusstr._26_Graz_Graz_AT_8010",
    "InstitutionName": "KFU",
    "InstitutionalDepartmentName": "Department",
    "MRAcquisitionType": "2D",
    "MagneticFieldStrength": 3,
    "Manufacturer": "Siemens",
    "ManufacturersModelName": "Skyra",
    "Modality": "MR",
    "PartialFourier": 1,
    "PatientPosition": "HFS",
    "PercentPhaseFOV": 100,
    "PhaseEncodingDirection": "j-",
    "PhaseEncodingSteps": 64,
    "PhaseResolution": 1,
    "PixelBandwidth": 1700,
    "ProcedureStepDescription": "KFU_Entw-Psy",
    "ProtocolName": "fMRI_2",
    "PulseSequenceDetails": "%SiemensSeq%_ep2d_pace",
    "ReceiveCoilActiveElements": "HE1-4",
    "ReceiveCoilName": "HeadNeck_20",
    "ReconMatrixPE": 64,
    "RepetitionTime": 2.34,
    "SAR": 0.190959,
    "ScanOptions": "FS",
    "ScanningSequence": "EP",
    "SequenceName": "_epfid2d1_64",
    "SequenceVariant": "SK",
    "SeriesDescription": "fMRI_2",
    "SeriesNumber": 5,
    "ShimSetting": [
      -1483,
      -3547,
      -4306,
      415,
      584,
      283,
      -55,
      -176
    ],
    "SliceThickness": 3,
    "SliceTiming": [
      2.2525,
      2.1825,
      2.115,
      2.0475,
      1.9775,
      1.91,
      1.8425,
      1.775,
      1.705,
      1.6375,
      1.57,
      1.5,
      1.4325,
      1.365,
      1.2975,
      1.2275,
      1.16,
      1.0925,
      1.0225,
      0.955,
      0.8875,
      0.8175,
      0.75,
      0.6825,
      0.615,
      0.545,
      0.4775,
      0.41,
      0.34,
      0.2725,
      0.205,
      0.1375,
      0.0675,
      0
    ],
    "SoftwareVersions": "syngo_MR_D13",
    "SpacingBetweenSlices": 3.3,
    "StationName": "FBMTMR1",
    "TaskName": "read",
    "TotalReadoutTime": 0.0409508,
    "TxRefAmp": 434.004,
    "dataset": "ds003126",
    "dcmmeta_affine": [
      [
        -2.994558095932007,
        0.06272711604833603,
        0.18630927801132202,
        92.3791275024414
      ],
      [
        -0.0002410371816949919,
        2.8118736743927,
        -1.1502059698104858,
        -98.31237030029297
      ],
      [
        0.18061432242393494,
        1.0437586307525635,
        3.08744478225708,
        -49.76994323730469
      ],
      [
        0.0,
        0.0,
        0.0,
        1.0
      ]
    ],
    "dcmmeta_reorient_transform": [
      [
        0.0,
        -1.0,
        0.0,
        63.0
      ],
      [
        1.0,
        0.0,
        0.0,
        0.0
      ],
      [
        0.0,
        0.0,
        1.0,
        0.0
      ],
      [
        0.0,
        0.0,
        0.0,
        1.0
      ]
    ],
    "dcmmeta_shape": [
      64,
      64,
      34,
      129
    ],
    "dcmmeta_slice_dim": 2,
    "dcmmeta_version": 0.6,
    "global": {
      "const": {
        "AcquisitionMatrix": [
          64,
          0,
          0,
          64
        ],
        "AngioFlag": "N",
        "BitsAllocated": 16,
        "BitsStored": 12,
        "BodyPartExamined": "HEAD",
        "Columns": 384,
        "EchoNumbers": 1,
        "EchoTime": 33.0,
        "EchoTrainLength": 64,
        "FlipAngle": 90.0,
        "HighBit": 11,
        "ImageOrientationPatient": [
          0.99818604412549,
          8.034572652e-05,
          0.06020477437606,
          0.02090903878865,
          0.93729120248785,
          -0.34791955081
        ],
        "ImagePositionPatient": [
          -585.49657895678,
          -528.77400848321,
          154.08994409795
        ],
        "ImageType": [
          "ORIGINAL",
          "PRIMARY",
          "M",
          "ND",
          "NORM",
          "MOSAIC"
        ],
        "ImagedNucleus": "1H",
        "ImagingFrequency": 123.214285,
        "InPlanePhaseEncodingDirection": "COL",
        "MRAcquisitionType": "2D",
        "MagneticFieldStrength": 3.0,
        "Manufacturer": "SIEMENS",
        "ManufacturerModelName": "Skyra",
        "Modality": "MR",
        "NumberOfAverages": 1.0,
        "NumberOfPhaseEncodingSteps": 64,
        "PercentPhaseFieldOfView": 100.0,
        "PercentSampling": 100.0,
        "PerformedProcedureStepStartTime": "122643.518000",
        "PhotometricInterpretation": "MONOCHROME2",
        "PixelBandwidth": 1700.0,
        "PixelRepresentation": 0,
        "PixelSpacing": [
          3.0,
          3.0
        ],
        "ProtocolName": "fMRI_2",
        "RepetitionTime": 2340.0,
        "Rows": 384,
        "SAR": 0.19095913037248,
        "SamplesPerPixel": 1,
        "ScanOptions": "FS",
        "ScanningSequence": "EP",
        "SequenceName": "*epfid2d1_64",
        "SequenceVariant": "SK",
        "SeriesDescription": "fMRI_2",
        "SeriesNumber": 5,
        "SeriesTime": "130041.187000",
        "SliceLocation": -7.0822376268981,
        "SliceThickness": 3.0,
        "SmallestImagePixelValue": 0,
        "SoftwareVersions": "syngo MR D13",
        "SpacingBetweenSlices": 3.2999999218483,
        "SpecificCharacterSet": "ISO_IR 100",
        "StudyID": "1",
        "StudyTime": "122643.470000",
        "TransmitCoilName": "Body",
        "VariableFlipAngleFlag": "N",
        "WindowCenterWidthExplanation": "Algo1",
        "dBdt": 0.0
      },
      "slices": {}
    },
    "modality": "bold",
    "run_id": 2,
    "session_id": "2",
    "subject_id": "047EPKL014037",
    "task_id": "read",
    "time": {
      "samples": {
        "AcquisitionNumber": [
          1,
          2,
          3,
          4,
          5,
          6,
          7,
          8,
          9,
          10,
          11,
          12,
          13,
          14,
          15,
          16,
          17,
          18,
          19,
          20,
          21,
          22,
          23,
          24,
          25,
          26,
          27,
          28,
          29,
          30,
          31,
          32,
          33,
          34,
          35,
          36,
          37,
          38,
          39,
          40,
          41,
          42,
          43,
          44,
          45,
          46,
          47,
          48,
          49,
          50,
          51,
          52,
          53,
          54,
          55,
          56,
          57,
          58,
          59,
          60,
          61,
          62,
          63,
          64,
          65,
          66,
          67,
          68,
          69,
          70,
          71,
          72,
          73,
          74,
          75,
          76,
          77,
          78,
          79,
          80,
          81,
          82,
          83,
          84,
          85,
          86,
          87,
          88,
          89,
          90,
          91,
          92,
          93,
          94,
          95,
          96,
          97,
          98,
          99,
          100,
          101,
          102,
          103,
          104,
          105,
          106,
          107,
          108,
          109,
          110,
          111,
          112,
          113,
          114,
          115,
          116,
          117,
          118,
          119,
          120,
          121,
          122,
          123,
          124,
          125,
          126,
          127,
          128,
          129
        ],
        "AcquisitionTime": [
          "125943.755000",
          "125946.095000",
          "125948.435000",
          "125950.775000",
          "125953.115000",
          "125955.455000",
          "125957.795000",
          "130000.135000",
          "130002.475000",
          "130004.815000",
          "130007.155000",
          "130009.495000",
          "130011.835000",
          "130014.175000",
          "130016.515000",
          "130018.855000",
          "130021.195000",
          "130023.535000",
          "130025.875000",
          "130028.215000",
          "130030.555000",
          "130032.895000",
          "130035.235000",
          "130037.575000",
          "130039.915000",
          "130042.255000",
          "130044.595000",
          "130046.935000",
          "130049.275000",
          "130051.615000",
          "130053.955000",
          "130056.295000",
          "130058.635000",
          "130100.975000",
          "130103.315000",
          "130105.655000",
          "130107.995000",
          "130110.335000",
          "130112.675000",
          "130115.015000",
          "130117.355000",
          "130119.695000",
          "130122.035000",
          "130124.375000",
          "130126.715000",
          "130129.055000",
          "130131.395000",
          "130133.735000",
          "130136.075000",
          "130138.415000",
          "130140.755000",
          "130143.095000",
          "130145.435000",
          "130147.775000",
          "130150.115000",
          "130152.455000",
          "130154.795000",
          "130157.135000",
          "130159.475000",
          "130201.815000",
          "130204.155000",
          "130206.495000",
          "130208.835000",
          "130211.175000",
          "130213.515000",
          "130215.855000",
          "130218.195000",
          "130220.535000",
          "130222.875000",
          "130225.215000",
          "130227.555000",
          "130229.895000",
          "130232.235000",
          "130234.575000",
          "130236.915000",
          "130239.255000",
          "130241.595000",
          "130243.935000",
          "130246.275000",
          "130248.615000",
          "130250.955000",
          "130253.295000",
          "130255.635000",
          "130257.975000",
          "130300.315000",
          "130302.655000",
          "130304.995000",
          "130307.335000",
          "130309.675000",
          "130312.015000",
          "130314.355000",
          "130316.695000",
          "130319.035000",
          "130321.375000",
          "130323.715000",
          "130326.055000",
          "130328.395000",
          "130330.735000",
          "130333.075000",
          "130335.415000",
          "130337.755000",
          "130340.095000",
          "130342.435000",
          "130344.775000",
          "130347.115000",
          "130349.455000",
          "130351.795000",
          "130354.135000",
          "130356.475000",
          "130358.815000",
          "130401.155000",
          "130403.495000",
          "130405.835000",
          "130408.175000",
          "130410.515000",
          "130412.855000",
          "130415.195000",
          "130417.535000",
          "130419.875000",
          "130422.215000",
          "130424.555000",
          "130426.895000",
          "130429.235000",
          "130431.575000",
          "130433.915000",
          "130436.255000",
          "130438.595000",
          "130440.935000",
          "130443.275000"
        ],
        "ContentTime": [
          "130041.191000",
          "130041.195000",
          "130041.198000",
          "130041.201000",
          "130041.203000",
          "130041.206000",
          "130041.208000",
          "130041.211000",
          "130041.213000",
          "130041.216000",
          "130041.219000",
          "130041.221000",
          "130041.224000",
          "130041.227000",
          "130041.230000",
          "130041.233000",
          "130041.235000",
          "130041.238000",
          "130041.241000",
          "130041.244000",
          "130041.247000",
          "130041.249000",
          "130041.252000",
          "130041.255000",
          "130041.257000",
          "130141.184000",
          "130141.187000",
          "130141.190000",
          "130141.193000",
          "130141.196000",
          "130141.199000",
          "130141.202000",
          "130141.204000",
          "130141.221000",
          "130141.223000",
          "130141.226000",
          "130141.229000",
          "130141.232000",
          "130141.235000",
          "130141.237000",
          "130141.240000",
          "130141.243000",
          "130141.246000",
          "130141.249000",
          "130141.251000",
          "130141.254000",
          "130141.257000",
          "130141.260000",
          "130141.263000",
          "130141.271000",
          "130241.184000",
          "130241.187000",
          "130241.190000",
          "130241.193000",
          "130241.203000",
          "130241.206000",
          "130241.208000",
          "130241.211000",
          "130241.214000",
          "130241.217000",
          "130241.224000",
          "130241.227000",
          "130241.230000",
          "130241.233000",
          "130241.236000",
          "130241.238000",
          "130241.241000",
          "130241.244000",
          "130241.247000",
          "130241.250000",
          "130241.252000",
          "130241.255000",
          "130241.258000",
          "130241.260000",
          "130241.263000",
          "130241.266000",
          "130321.185000",
          "130321.188000",
          "130321.191000",
          "130321.193000",
          "130321.204000",
          "130321.207000",
          "130321.210000",
          "130321.213000",
          "130321.216000",
          "130321.219000",
          "130321.222000",
          "130321.225000",
          "130321.228000",
          "130321.230000",
          "130321.233000",
          "130321.236000",
          "130321.239000",
          "130421.184000",
          "130421.187000",
          "130421.190000",
          "130421.193000",
          "130421.195000",
          "130421.198000",
          "130421.201000",
          "130421.203000",
          "130421.206000",
          "130421.208000",
          "130421.212000",
          "130421.214000",
          "130421.217000",
          "130421.219000",
          "130421.222000",
          "130421.225000",
          "130421.227000",
          "130421.230000",
          "130421.233000",
          "130421.236000",
          "130421.238000",
          "130421.241000",
          "130421.243000",
          "130421.246000",
          "130421.249000",
          "130421.252000",
          "130446.293000",
          "130446.296000",
          "130446.308000",
          "130446.313000",
          "130446.317000",
          "130446.320000",
          "130446.323000",
          "130446.326000",
          "130446.329000",
          "130446.333000"
        ],
        "InstanceCreationTime": [
          "130041.191000",
          "130041.195000",
          "130041.198000",
          "130041.201000",
          "130041.203000",
          "130041.206000",
          "130041.208000",
          "130041.211000",
          "130041.213000",
          "130041.216000",
          "130041.219000",
          "130041.221000",
          "130041.224000",
          "130041.227000",
          "130041.230000",
          "130041.233000",
          "130041.235000",
          "130041.238000",
          "130041.241000",
          "130041.244000",
          "130041.247000",
          "130041.249000",
          "130041.252000",
          "130041.255000",
          "130041.257000",
          "130141.184000",
          "130141.187000",
          "130141.190000",
          "130141.193000",
          "130141.196000",
          "130141.199000",
          "130141.202000",
          "130141.204000",
          "130141.221000",
          "130141.223000",
          "130141.226000",
          "130141.229000",
          "130141.232000",
          "130141.235000",
          "130141.237000",
          "130141.240000",
          "130141.243000",
          "130141.246000",
          "130141.249000",
          "130141.251000",
          "130141.254000",
          "130141.257000",
          "130141.260000",
          "130141.263000",
          "130141.271000",
          "130241.184000",
          "130241.187000",
          "130241.190000",
          "130241.193000",
          "130241.203000",
          "130241.206000",
          "130241.208000",
          "130241.211000",
          "130241.214000",
          "130241.217000",
          "130241.224000",
          "130241.227000",
          "130241.230000",
          "130241.233000",
          "130241.236000",
          "130241.238000",
          "130241.241000",
          "130241.244000",
          "130241.247000",
          "130241.250000",
          "130241.252000",
          "130241.255000",
          "130241.258000",
          "130241.260000",
          "130241.263000",
          "130241.266000",
          "130321.185000",
          "130321.188000",
          "130321.191000",
          "130321.193000",
          "130321.204000",
          "130321.207000",
          "130321.210000",
          "130321.213000",
          "130321.216000",
          "130321.219000",
          "130321.222000",
          "130321.225000",
          "130321.228000",
          "130321.230000",
          "130321.233000",
          "130321.236000",
          "130321.239000",
          "130421.184000",
          "130421.187000",
          "130421.190000",
          "130421.193000",
          "130421.195000",
          "130421.198000",
          "130421.201000",
          "130421.203000",
          "130421.206000",
          "130421.208000",
          "130421.212000",
          "130421.214000",
          "130421.217000",
          "130421.219000",
          "130421.222000",
          "130421.225000",
          "130421.227000",
          "130421.230000",
          "130421.233000",
          "130421.236000",
          "130421.238000",
          "130421.241000",
          "130421.243000",
          "130421.246000",
          "130421.249000",
          "130421.252000",
          "130446.293000",
          "130446.296000",
          "130446.308000",
          "130446.313000",
          "130446.317000",
          "130446.320000",
          "130446.323000",
          "130446.326000",
          "130446.329000",
          "130446.333000"
        ],
        "InstanceNumber": [
          1,
          2,
          3,
          4,
          5,
          6,
          7,
          8,
          9,
          10,
          11,
          12,
          13,
          14,
          15,
          16,
          17,
          18,
          19,
          20,
          21,
          22,
          23,
          24,
          25,
          26,
          27,
          28,
          29,
          30,
          31,
          32,
          33,
          34,
          35,
          36,
          37,
          38,
          39,
          40,
          41,
          42,
          43,
          44,
          45,
          46,
          47,
          48,
          49,
          50,
          51,
          52,
          53,
          54,
          55,
          56,
          57,
          58,
          59,
          60,
          61,
          62,
          63,
          64,
          65,
          66,
          67,
          68,
          69,
          70,
          71,
          72,
          73,
          74,
          75,
          76,
          77,
          78,
          79,
          80,
          81,
          82,
          83,
          84,
          85,
          86,
          87,
          88,
          89,
          90,
          91,
          92,
          93,
          94,
          95,
          96,
          97,
          98,
          99,
          100,
          101,
          102,
          103,
          104,
          105,
          106,
          107,
          108,
          109,
          110,
          111,
          112,
          113,
          114,
          115,
          116,
          117,
          118,
          119,
          120,
          121,
          122,
          123,
          124,
          125,
          126,
          127,
          128,
          129
        ],
        "LargestImagePixelValue": [
          1776,
          1771,
          1877,
          2213,
          1933,
          1805,
          2098,
          2129,
          2124,
          2012,
          1965,
          1824,
          1742,
          2143,
          1731,
          1761,
          1801,
          1735,
          1727,
          1813,
          1767,
          2173,
          1760,
          2186,
          1907,
          1735,
          1759,
          1892,
          1706,
          1728,
          1736,
          1776,
          1807,
          1752,
          1760,
          1791,
          2298,
          1944,
          1701,
          1960,
          1904,
          1839,
          1909,
          1747,
          1715,
          1780,
          1800,
          2199,
          1814,
          1763,
          1879,
          1899,
          1813,
          2270,
          1740,
          1799,
          1785,
          1784,
          1834,
          1731,
          1853,
          1875,
          1837,
          1924,
          2093,
          2342,
          2337,
          1803,
          1922,
          1853,
          1731,
          1742,
          1733,
          1781,
          1724,
          1738,
          1735,
          1846,
          1830,
          2067,
          1784,
          2230,
          2041,
          2129,
          1734,
          1685,
          1708,
          1796,
          1805,
          1872,
          1906,
          2037,
          1928,
          1868,
          1768,
          1802,
          1987,
          2270,
          1859,
          2006,
          1805,
          1738,
          1973,
          2173,
          1857,
          1937,
          1807,
          1786,
          1824,
          1826,
          1903,
          1824,
          2006,
          1745,
          2231,
          1774,
          1907,
          1753,
          1840,
          1869,
          1789,
          1858,
          2042,
          1713,
          1712,
          2256,
          2168,
          1873,
          1833
        ],
        "WindowCenter": [
          782.0,
          783.0,
          784.0,
          784.0,
          781.0,
          779.0,
          782.0,
          781.0,
          778.0,
          777.0,
          777.0,
          778.0,
          776.0,
          776.0,
          775.0,
          775.0,
          775.0,
          775.0,
          775.0,
          777.0,
          778.0,
          779.0,
          777.0,
          776.0,
          776.0,
          775.0,
          777.0,
          777.0,
          776.0,
          776.0,
          778.0,
          781.0,
          781.0,
          781.0,
          779.0,
          781.0,
          781.0,
          781.0,
          780.0,
          780.0,
          781.0,
          782.0,
          779.0,
          780.0,
          780.0,
          783.0,
          781.0,
          781.0,
          779.0,
          779.0,
          779.0,
          779.0,
          778.0,
          778.0,
          780.0,
          781.0,
          781.0,
          783.0,
          782.0,
          780.0,
          781.0,
          785.0,
          785.0,
          784.0,
          780.0,
          777.0,
          776.0,
          774.0,
          775.0,
          774.0,
          776.0,
          777.0,
          779.0,
          780.0,
          780.0,
          780.0,
          783.0,
          784.0,
          780.0,
          782.0,
          780.0,
          785.0,
          781.0,
          781.0,
          782.0,
          781.0,
          783.0,
          787.0,
          786.0,
          786.0,
          788.0,
          787.0,
          785.0,
          784.0,
          783.0,
          784.0,
          785.0,
          785.0,
          784.0,
          786.0,
          784.0,
          787.0,
          789.0,
          794.0,
          790.0,
          790.0,
          790.0,
          789.0,
          791.0,
          789.0,
          786.0,
          787.0,
          787.0,
          786.0,
          788.0,
          788.0,
          790.0,
          790.0,
          791.0,
          790.0,
          788.0,
          789.0,
          788.0,
          790.0,
          790.0,
          792.0,
          788.0,
          790.0,
          789.0
        ],
        "WindowWidth": [
          1653.0,
          1654.0,
          1656.0,
          1658.0,
          1649.0,
          1644.0,
          1652.0,
          1650.0,
          1642.0,
          1639.0,
          1638.0,
          1642.0,
          1638.0,
          1635.0,
          1634.0,
          1635.0,
          1633.0,
          1634.0,
          1634.0,
          1638.0,
          1640.0,
          1644.0,
          1638.0,
          1637.0,
          1636.0,
          1634.0,
          1638.0,
          1638.0,
          1635.0,
          1637.0,
          1641.0,
          1650.0,
          1650.0,
          1649.0,
          1645.0,
          1647.0,
          1649.0,
          1649.0,
          1646.0,
          1647.0,
          1648.0,
          1654.0,
          1646.0,
          1645.0,
          1645.0,
          1653.0,
          1650.0,
          1650.0,
          1644.0,
          1644.0,
          1644.0,
          1644.0,
          1642.0,
          1643.0,
          1645.0,
          1649.0,
          1650.0,
          1653.0,
          1653.0,
          1647.0,
          1650.0,
          1659.0,
          1658.0,
          1657.0,
          1648.0,
          1639.0,
          1636.0,
          1633.0,
          1634.0,
          1632.0,
          1635.0,
          1638.0,
          1643.0,
          1645.0,
          1645.0,
          1647.0,
          1652.0,
          1658.0,
          1647.0,
          1651.0,
          1648.0,
          1657.0,
          1651.0,
          1649.0,
          1650.0,
          1649.0,
          1654.0,
          1666.0,
          1661.0,
          1662.0,
          1666.0,
          1665.0,
          1659.0,
          1658.0,
          1655.0,
          1658.0,
          1660.0,
          1660.0,
          1656.0,
          1663.0,
          1658.0,
          1663.0,
          1670.0,
          1681.0,
          1674.0,
          1673.0,
          1672.0,
          1672.0,
          1674.0,
          1671.0,
          1664.0,
          1664.0,
          1666.0,
          1662.0,
          1665.0,
          1669.0,
          1673.0,
          1672.0,
          1674.0,
          1673.0,
          1669.0,
          1668.0,
          1669.0,
          1671.0,
          1672.0,
          1680.0,
          1671.0,
          1671.0,
          1670.0
        ]
      },
      "slices": {}
    }
  },
  "dummy_trs": 0,
  "dvars_nstd": 36.24230822929687,
  "dvars_std": 1.2542175635937505,
  "dvars_vstd": 0.990676460546875,
  "efc": 0.5742017395125791,
  "fber": 1472.401611328125,
  "fd_mean": 0.4521676391779271,
  "fd_num": 114,
  "fd_perc": 88.37209302325581,
  "fwhm_avg": 1.8490493013491835,
  "fwhm_x": 1.75664,
  "fwhm_y": 2.042386666666667,
  "fwhm_z": 1.7481212373808837,
  "gcor": 0.212475,
  "gsr_x": 0.0008752866997383535,
  "gsr_y": 0.040543489158153534,
  "provenance": {
    "md5sum": "5b6fc64c6ffb8a0a5f3d50c12d2f67dd",
    "settings": {
      "fd_thres": 0.2,
      "testing": false
    },
    "software": "mriqc",
    "version": "22.0.1",
    "webapi_port": null,
    "webapi_url": "https://mriqc.nimh.nih.gov/api/v1"
  },
  "size_t": 129,
  "size_x": 64,
  "size_y": 64,
  "size_z": 34,
  "snr": 5.842482760711581,
  "spacing_tr": 2.3399999141693115,
  "spacing_x": 3.0,
  "spacing_y": 3.0,
  "spacing_z": 3.299999952316284,
  "summary_bg_k": 64.20542423147462,
  "summary_bg_mad": 9.493251699593321,
  "summary_bg_mean": 35.7009391784668,
  "summary_bg_median": 22.12403106689453,
  "summary_bg_n": 71716.0,
  "summary_bg_p05": 12.00775146484375,
  "summary_bg_p95": 86.28875732421875,
  "summary_bg_stdv": 58.10958480834961,
  "summary_fg_k": 0.7765257846970344,
  "summary_fg_mad": 150.81170208450698,
  "summary_fg_mean": 870.1417846679688,
  "summary_fg_median": 868.0852661132812,
  "summary_fg_n": 35071.0,
  "summary_fg_p05": 635.217041015625,
  "summary_fg_p95": 1105.4844970703125,
  "summary_fg_stdv": 148.57945251464844,
  "tsnr": 49.18597237835638
}