{
  "aor": 0.00891643410852713,
  "aqi": 0.01938746108527132,
  "bids_meta": {
    "AcquisitionMatrixPE": 64,
    "AcquisitionNumber": 1,
    "AcquisitionTime": "11:10:36.577500",
    "BandwidthPerPixelPhaseEncode": 24.038,
    "BaseResolution": 64,
    "BodyPartExamined": "HEAD",
    "ConsistencyInfo": "N4_VD13A_LATEST_20120616",
    "ConversionSoftware": "dcm2niix",
    "ConversionSoftwareVersion": "v1.0.20181125  GCC6.3.0",
    "DerivedVendorReportedEchoSpacing": 0.000650012,
    "DeviceSerialNumber": "45250",
    "DwellTime": 4.6e-06,
    "EchoTime": 0.033,
    "EchoTrainLength": 64,
    "EffectiveEchoSpacing": 0.000650012,
    "FlipAngle": 90,
    "ImageOrientationPatientDICOM": [
      0.999938,
      -0.00274283,
      0.0107842,
      0.00523575,
      0.971134,
      -0.238475
    ],
    "ImageType": [
      "ORIGINAL",
      "PRIMARY",
      "M",
      "ND",
      "NORM",
      "MOSAIC"
    ],
    "ImagingFrequency": 123.214,
    "InPlanePhaseEncodingDirectionDICOM": "COL",
    "InstitutionAddress": "Kopernikusstr._26_Graz_Graz_AT_8010",
    "InstitutionName": "KFU",
    "InstitutionalDepartmentName": "Department",
    "MRAcquisitionType": "2D",
    "MagneticFieldStrength": 3,
    "Manufacturer": "Siemens",
    "ManufacturersModelName": "Skyra",
    "Modality": "MR",
    "PartialFourier": 1,
    "PatientPosition": "HFS",
    "PercentPhaseFOV": 100,
    "PhaseEncodingDirection": "j-",
    "PhaseEncodingSteps": 64,
    "PhaseResolution": 1,
    "PixelBandwidth": 1700,
    "ProcedureStepDescription": "KFU_Entw-Psy",
    "ProtocolName": "fMRI_1",
    "PulseSequenceDetails": "%SiemensSeq%_ep2d_pace",
    "ReceiveCoilActiveElements": "HE1-4",
    "ReceiveCoilName": "HeadNeck_20",
    "ReconMatrixPE": 64,
    "RepetitionTime": 2.34,
    "SAR": 0.16928,
    "ScanOptions": "FS",
    "ScanningSequence": "EP",
    "SequenceName": "_epfid2d1_64",
    "SequenceVariant": "SK",
    "SeriesDescription": "fMRI_1",
    "SeriesNumber": 2,
    "ShimSetting": [
      -1559,
      -3650,
      -4263,
      386,
      489,
      256,
      271,
      -338
    ],
    "SliceThickness": 3,
    "SliceTiming": [
      2.25,
      2.1825,
      2.115,
      2.045,
      1.9775,
      1.91,
      1.84,
      1.7725,
      1.705,
      1.6375,
      1.5675,
      1.5,
      1.4325,
      1.3625,
      1.295,
      1.2275,
      1.16,
      1.09,
      1.0225,
      0.955,
      0.885,
      0.8175,
      0.75,
      0.6825,
      0.6125,
      0.545,
      0.4775,
      0.4075,
      0.34,
      0.2725,
      0.2025,
      0.135,
      0.0675,
      0
    ],
    "SoftwareVersions": "syngo_MR_D13",
    "SpacingBetweenSlices": 3.3,
    "StationName": "FBMTMR1",
    "TaskName": "read",
    "TotalReadoutTime": 0.0409508,
    "TxRefAmp": 329.167,
    "dataset": "ds003126",
    "dcmmeta_affine": [
      [
        -2.99981427192688,
        0.015707239508628845,
        0.032402027398347855,
        95.84342956542969
      ],
      [
        0.008228504098951817,
        2.9134035110473633,
        -0.7871058583259583,
        -110.04564666748047
      ],
      [
        0.03235255554318428,
        0.7154256701469421,
        3.204592704772949,
        -30.80196762084961
      ],
      [
        0.0,
        0.0,
        0.0,
        1.0
      ]
    ],
    "dcmmeta_reorient_transform": [
      [
        0.0,
        -1.0,
        0.0,
        63.0
      ],
      [
        1.0,
        0.0,
        0.0,
        0.0
      ],
      [
        0.0,
        0.0,
        1.0,
        0.0
      ],
      [
        0.0,
        0.0,
        0.0,
        1.0
      ]
    ],
    "dcmmeta_shape": [
      64,
      64,
      34,
      129
    ],
    "dcmmeta_slice_dim": 2,
    "dcmmeta_version": 0.6,
    "global": {
      "const": {
        "AcquisitionMatrix": [
          64,
          0,
          0,
          64
        ],
        "AngioFlag": "N",
        "BitsAllocated": 16,
        "BitsStored": 12,
        "BodyPartExamined": "HEAD",
        "Columns": 384,
        "EchoNumbers": 1,
        "EchoTime": 33.0,
        "EchoTrainLength": 64,
        "FlipAngle": 90.0,
        "HighBit": 11,
        "ImageOrientationPatient": [
          0.99993808718815,
          -0.0027428347583,
          0.01078418508755,
          0.00523574654284,
          0.97113446642553,
          -0.2384752294863
        ],
        "ImagePositionPatient": [
          -579.31642484703,
          -538.32675054041,
          123.56155299487
        ],
        "ImageType": [
          "ORIGINAL",
          "PRIMARY",
          "M",
          "ND",
          "NORM",
          "MOSAIC"
        ],
        "ImagedNucleus": "1H",
        "ImagingFrequency": 123.214404,
        "InPlanePhaseEncodingDirection": "COL",
        "MRAcquisitionType": "2D",
        "MagneticFieldStrength": 3.0,
        "Manufacturer": "SIEMENS",
        "ManufacturerModelName": "Skyra",
        "Modality": "MR",
        "NumberOfAverages": 1.0,
        "NumberOfPhaseEncodingSteps": 64,
        "PercentPhaseFieldOfView": 100.0,
        "PercentSampling": 100.0,
        "PerformedProcedureStepStartTime": "110513.114000",
        "PhotometricInterpretation": "MONOCHROME2",
        "PixelBandwidth": 1700.0,
        "PixelRepresentation": 0,
        "PixelSpacing": [
          3.0,
          3.0
        ],
        "ProtocolName": "fMRI_1",
        "RepetitionTime": 2340.0,
        "Rows": 384,
        "SAR": 0.16928013753836,
        "SamplesPerPixel": 1,
        "ScanOptions": "FS",
        "ScanningSequence": "EP",
        "SequenceName": "*epfid2d1_64",
        "SequenceVariant": "SK",
        "SeriesDescription": "fMRI_1",
        "SeriesNumber": 2,
        "SeriesTime": "111125.308000",
        "SliceLocation": -2.7226251689513,
        "SliceThickness": 3.0,
        "SmallestImagePixelValue": 0,
        "SoftwareVersions": "syngo MR D13",
        "SpacingBetweenSlices": 3.2999999869241,
        "SpecificCharacterSet": "ISO_IR 100",
        "StudyID": "1",
        "StudyTime": "110513.066000",
        "TransmitCoilName": "Body",
        "VariableFlipAngleFlag": "N",
        "WindowCenterWidthExplanation": "Algo1",
        "dBdt": 0.0
      },
      "slices": {}
    },
    "modality": "bold",
    "run_id": 1,
    "session_id": "2",
    "subject_id": "047EPKL013025",
    "task_id": "read",
    "time": {
      "samples": {
        "AcquisitionNumber": [
          1,
          2,
          3,
          4,
          5,
          6,
          7,
          8,
          9,
          10,
          11,
          12,
          13,
          14,
          15,
          16,
          17,
          18,
          19,
          20,
          21,
          22,
          23,
          24,
          25,
          26,
          27,
          28,
          29,
          30,
          31,
          32,
          33,
          34,
          35,
          36,
          37,
          38,
          39,
          40,
          41,
          42,
          43,
          44,
          45,
          46,
          47,
          48,
          49,
          50,
          51,
          52,
          53,
          54,
          55,
          56,
          57,
          58,
          59,
          60,
          61,
          62,
          63,
          64,
          65,
          66,
          67,
          68,
          69,
          70,
          71,
          72,
          73,
          74,
          75,
          76,
          77,
          78,
          79,
          80,
          81,
          82,
          83,
          84,
          85,
          86,
          87,
          88,
          89,
          90,
          91,
          92,
          93,
          94,
          95,
          96,
          97,
          98,
          99,
          100,
          101,
          102,
          103,
          104,
          105,
          106,
          107,
          108,
          109,
          110,
          111,
          112,
          113,
          114,
          115,
          116,
          117,
          118,
          119,
          120,
          121,
          122,
          123,
          124,
          125,
          126,
          127,
          128,
          129
        ],
        "AcquisitionTime": [
          "111036.577500",
          "111038.917500",
          "111041.257500",
          "111043.597500",
          "111045.937500",
          "111048.277500",
          "111050.617500",
          "111052.957500",
          "111055.297500",
          "111057.637500",
          "111059.977500",
          "111102.317500",
          "111104.657500",
          "111106.997500",
          "111109.337500",
          "111111.677500",
          "111114.017500",
          "111116.357500",
          "111118.697500",
          "111121.037500",
          "111123.377500",
          "111125.717500",
          "111128.057500",
          "111130.397500",
          "111132.737500",
          "111135.077500",
          "111137.417500",
          "111139.757500",
          "111142.097500",
          "111144.437500",
          "111146.777500",
          "111149.117500",
          "111151.457500",
          "111153.797500",
          "111156.137500",
          "111158.477500",
          "111200.817500",
          "111203.157500",
          "111205.497500",
          "111207.837500",
          "111210.177500",
          "111212.517500",
          "111214.857500",
          "111217.197500",
          "111219.537500",
          "111221.877500",
          "111224.217500",
          "111226.557500",
          "111228.897500",
          "111231.237500",
          "111233.577500",
          "111235.917500",
          "111238.257500",
          "111240.597500",
          "111242.937500",
          "111245.277500",
          "111247.617500",
          "111249.957500",
          "111252.297500",
          "111254.637500",
          "111256.977500",
          "111259.317500",
          "111301.657500",
          "111303.997500",
          "111306.337500",
          "111308.677500",
          "111311.017500",
          "111313.357500",
          "111315.697500",
          "111318.037500",
          "111320.377500",
          "111322.717500",
          "111325.057500",
          "111327.397500",
          "111329.737500",
          "111332.077500",
          "111334.417500",
          "111336.757500",
          "111339.097500",
          "111341.437500",
          "111343.777500",
          "111346.117500",
          "111348.457500",
          "111350.797500",
          "111353.137500",
          "111355.477500",
          "111357.817500",
          "111400.157500",
          "111402.497500",
          "111404.837500",
          "111407.177500",
          "111409.517500",
          "111411.857500",
          "111414.197500",
          "111416.537500",
          "111418.877500",
          "111421.217500",
          "111423.557500",
          "111425.897500",
          "111428.237500",
          "111430.577500",
          "111432.917500",
          "111435.257500",
          "111437.597500",
          "111439.937500",
          "111442.277500",
          "111444.617500",
          "111446.957500",
          "111449.297500",
          "111451.637500",
          "111453.977500",
          "111456.317500",
          "111458.657500",
          "111500.997500",
          "111503.337500",
          "111505.677500",
          "111508.017500",
          "111510.357500",
          "111512.697500",
          "111515.037500",
          "111517.377500",
          "111519.717500",
          "111522.057500",
          "111524.397500",
          "111526.737500",
          "111529.077500",
          "111531.417500",
          "111533.757500",
          "111536.097500"
        ],
        "ContentTime": [
          "111125.313000",
          "111125.324000",
          "111125.327000",
          "111125.330000",
          "111125.333000",
          "111125.336000",
          "111125.338000",
          "111125.341000",
          "111125.344000",
          "111125.347000",
          "111125.349000",
          "111125.352000",
          "111125.354000",
          "111125.357000",
          "111125.365000",
          "111125.368000",
          "111125.371000",
          "111125.373000",
          "111125.376000",
          "111125.391000",
          "111125.394000",
          "111225.306000",
          "111225.310000",
          "111225.313000",
          "111225.315000",
          "111225.318000",
          "111225.321000",
          "111225.324000",
          "111225.326000",
          "111225.329000",
          "111225.332000",
          "111225.334000",
          "111225.337000",
          "111225.340000",
          "111225.342000",
          "111225.345000",
          "111225.348000",
          "111225.350000",
          "111225.353000",
          "111225.356000",
          "111225.358000",
          "111225.361000",
          "111225.364000",
          "111225.367000",
          "111225.369000",
          "111225.372000",
          "111225.375000",
          "111325.306000",
          "111325.315000",
          "111325.317000",
          "111325.320000",
          "111325.323000",
          "111325.326000",
          "111325.328000",
          "111325.331000",
          "111325.334000",
          "111325.337000",
          "111325.339000",
          "111325.342000",
          "111325.344000",
          "111325.347000",
          "111325.350000",
          "111325.352000",
          "111325.355000",
          "111325.358000",
          "111325.365000",
          "111325.367000",
          "111325.370000",
          "111325.373000",
          "111325.375000",
          "111325.378000",
          "111325.381000",
          "111425.307000",
          "111425.310000",
          "111425.313000",
          "111425.320000",
          "111425.323000",
          "111425.325000",
          "111425.328000",
          "111425.331000",
          "111425.334000",
          "111425.336000",
          "111425.339000",
          "111425.342000",
          "111425.345000",
          "111425.347000",
          "111425.350000",
          "111425.353000",
          "111425.356000",
          "111425.358000",
          "111425.361000",
          "111425.363000",
          "111425.366000",
          "111425.369000",
          "111425.371000",
          "111425.374000",
          "111425.377000",
          "111425.379000",
          "111525.306000",
          "111525.310000",
          "111525.312000",
          "111525.315000",
          "111525.318000",
          "111525.321000",
          "111525.323000",
          "111525.326000",
          "111525.329000",
          "111525.332000",
          "111525.334000",
          "111525.337000",
          "111525.340000",
          "111525.342000",
          "111525.345000",
          "111525.348000",
          "111525.351000",
          "111525.353000",
          "111525.356000",
          "111525.359000",
          "111525.362000",
          "111525.365000",
          "111525.368000",
          "111525.371000",
          "111525.374000",
          "111525.376000",
          "111539.020000",
          "111539.023000",
          "111539.026000",
          "111539.029000",
          "111539.040000"
        ],
        "InstanceCreationTime": [
          "111125.313000",
          "111125.324000",
          "111125.327000",
          "111125.330000",
          "111125.333000",
          "111125.336000",
          "111125.338000",
          "111125.341000",
          "111125.344000",
          "111125.347000",
          "111125.349000",
          "111125.352000",
          "111125.354000",
          "111125.357000",
          "111125.365000",
          "111125.368000",
          "111125.371000",
          "111125.373000",
          "111125.376000",
          "111125.391000",
          "111125.394000",
          "111225.306000",
          "111225.310000",
          "111225.313000",
          "111225.315000",
          "111225.318000",
          "111225.321000",
          "111225.324000",
          "111225.326000",
          "111225.329000",
          "111225.332000",
          "111225.334000",
          "111225.337000",
          "111225.340000",
          "111225.342000",
          "111225.345000",
          "111225.348000",
          "111225.350000",
          "111225.353000",
          "111225.356000",
          "111225.358000",
          "111225.361000",
          "111225.364000",
          "111225.367000",
          "111225.369000",
          "111225.372000",
          "111225.375000",
          "111325.306000",
          "111325.315000",
          "111325.317000",
          "111325.320000",
          "111325.323000",
          "111325.326000",
          "111325.328000",
          "111325.331000",
          "111325.334000",
          "111325.337000",
          "111325.339000",
          "111325.342000",
          "111325.344000",
          "111325.347000",
          "111325.350000",
          "111325.352000",
          "111325.355000",
          "111325.358000",
          "111325.365000",
          "111325.367000",
          "111325.370000",
          "111325.373000",
          "111325.375000",
          "111325.378000",
          "111325.381000",
          "111425.307000",
          "111425.310000",
          "111425.313000",
          "111425.320000",
          "111425.323000",
          "111425.325000",
          "111425.328000",
          "111425.331000",
          "111425.334000",
          "111425.336000",
          "111425.339000",
          "111425.342000",
          "111425.345000",
          "111425.347000",
          "111425.350000",
          "111425.353000",
          "111425.356000",
          "111425.358000",
          "111425.361000",
          "111425.363000",
          "111425.366000",
          "111425.369000",
          "111425.371000",
          "111425.374000",
          "111425.377000",
          "111425.379000",
          "111525.306000",
          "111525.310000",
          "111525.312000",
          "111525.315000",
          "111525.318000",
          "111525.321000",
          "111525.323000",
          "111525.326000",
          "111525.329000",
          "111525.332000",
          "111525.334000",
          "111525.337000",
          "111525.340000",
          "111525.342000",
          "111525.345000",
          "111525.348000",
          "111525.351000",
          "111525.353000",
          "111525.356000",
          "111525.359000",
          "111525.362000",
          "111525.365000",
          "111525.368000",
          "111525.371000",
          "111525.374000",
          "111525.376000",
          "111539.020000",
          "111539.023000",
          "111539.026000",
          "111539.029000",
          "111539.040000"
        ],
        "InstanceNumber": [
          1,
          2,
          3,
          4,
          5,
          6,
          7,
          8,
          9,
          10,
          11,
          12,
          13,
          14,
          15,
          16,
          17,
          18,
          19,
          20,
          21,
          22,
          23,
          24,
          25,
          26,
          27,
          28,
          29,
          30,
          31,
          32,
          33,
          34,
          35,
          36,
          37,
          38,
          39,
          40,
          41,
          42,
          43,
          44,
          45,
          46,
          47,
          48,
          49,
          50,
          51,
          52,
          53,
          54,
          55,
          56,
          57,
          58,
          59,
          60,
          61,
          62,
          63,
          64,
          65,
          66,
          67,
          68,
          69,
          70,
          71,
          72,
          73,
          74,
          75,
          76,
          77,
          78,
          79,
          80,
          81,
          82,
          83,
          84,
          85,
          86,
          87,
          88,
          89,
          90,
          91,
          92,
          93,
          94,
          95,
          96,
          97,
          98,
          99,
          100,
          101,
          102,
          103,
          104,
          105,
          106,
          107,
          108,
          109,
          110,
          111,
          112,
          113,
          114,
          115,
          116,
          117,
          118,
          119,
          120,
          121,
          122,
          123,
          124,
          125,
          126,
          127,
          128,
          129
        ],
        "LargestImagePixelValue": [
          2799,
          2755,
          2253,
          2185,
          2334,
          2256,
          2566,
          2206,
          2363,
          2127,
          2145,
          2307,
          2298,
          2373,
          2235,
          2785,
          2387,
          2048,
          2426,
          2165,
          2192,
          2308,
          2201,
          1938,
          2214,
          2178,
          2547,
          2245,
          2279,
          1846,
          2248,
          2098,
          2269,
          2167,
          2011,
          2309,
          2070,
          2782,
          2208,
          2073,
          2243,
          2244,
          1942,
          2286,
          2078,
          2019,
          2016,
          2293,
          2401,
          2396,
          2267,
          1980,
          2081,
          2360,
          2020,
          2284,
          2012,
          2117,
          2329,
          1864,
          2151,
          2128,
          2131,
          2205,
          2381,
          2406,
          2358,
          2119,
          2142,
          2236,
          2394,
          2186,
          2779,
          2096,
          2060,
          2294,
          2043,
          2043,
          2123,
          2366,
          2556,
          2457,
          2608,
          2442,
          2220,
          2434,
          2329,
          2027,
          2055,
          1981,
          2183,
          2961,
          2377,
          2788,
          2160,
          1970,
          1965,
          2079,
          1984,
          1932,
          2066,
          2322,
          2145,
          2366,
          2305,
          2042,
          2328,
          2302,
          2282,
          2198,
          2239,
          2123,
          2090,
          2565,
          2501,
          2069,
          2138,
          2277,
          2427,
          2514,
          2171,
          2335,
          2057,
          2197,
          2334,
          2866,
          2521,
          2194,
          1991
        ],
        "WindowCenter": [
          803.0,
          799.0,
          797.0,
          798.0,
          800.0,
          800.0,
          799.0,
          797.0,
          797.0,
          801.0,
          800.0,
          803.0,
          800.0,
          800.0,
          799.0,
          800.0,
          798.0,
          798.0,
          800.0,
          799.0,
          800.0,
          800.0,
          799.0,
          802.0,
          802.0,
          802.0,
          801.0,
          799.0,
          800.0,
          800.0,
          801.0,
          802.0,
          801.0,
          802.0,
          802.0,
          802.0,
          801.0,
          801.0,
          800.0,
          800.0,
          801.0,
          800.0,
          801.0,
          803.0,
          801.0,
          802.0,
          802.0,
          803.0,
          802.0,
          801.0,
          800.0,
          799.0,
          802.0,
          803.0,
          802.0,
          803.0,
          802.0,
          803.0,
          803.0,
          802.0,
          805.0,
          804.0,
          804.0,
          804.0,
          804.0,
          804.0,
          802.0,
          802.0,
          802.0,
          802.0,
          802.0,
          801.0,
          802.0,
          802.0,
          802.0,
          802.0,
          801.0,
          803.0,
          805.0,
          807.0,
          805.0,
          803.0,
          803.0,
          803.0,
          801.0,
          803.0,
          803.0,
          804.0,
          806.0,
          807.0,
          806.0,
          806.0,
          804.0,
          803.0,
          802.0,
          803.0,
          806.0,
          805.0,
          805.0,
          805.0,
          807.0,
          807.0,
          806.0,
          803.0,
          802.0,
          802.0,
          803.0,
          803.0,
          803.0,
          804.0,
          804.0,
          804.0,
          804.0,
          801.0,
          799.0,
          803.0,
          803.0,
          804.0,
          803.0,
          805.0,
          802.0,
          803.0,
          806.0,
          804.0,
          805.0,
          803.0,
          800.0,
          801.0,
          802.0
        ],
        "WindowWidth": [
          1719.0,
          1709.0,
          1704.0,
          1707.0,
          1712.0,
          1710.0,
          1710.0,
          1704.0,
          1705.0,
          1711.0,
          1709.0,
          1720.0,
          1713.0,
          1710.0,
          1708.0,
          1711.0,
          1707.0,
          1705.0,
          1712.0,
          1709.0,
          1711.0,
          1710.0,
          1708.0,
          1716.0,
          1718.0,
          1716.0,
          1712.0,
          1707.0,
          1711.0,
          1709.0,
          1713.0,
          1715.0,
          1713.0,
          1714.0,
          1714.0,
          1716.0,
          1712.0,
          1714.0,
          1710.0,
          1709.0,
          1713.0,
          1713.0,
          1712.0,
          1719.0,
          1714.0,
          1715.0,
          1716.0,
          1718.0,
          1716.0,
          1714.0,
          1710.0,
          1709.0,
          1717.0,
          1718.0,
          1714.0,
          1718.0,
          1715.0,
          1721.0,
          1720.0,
          1718.0,
          1723.0,
          1723.0,
          1722.0,
          1721.0,
          1722.0,
          1721.0,
          1717.0,
          1719.0,
          1717.0,
          1716.0,
          1717.0,
          1715.0,
          1717.0,
          1715.0,
          1716.0,
          1717.0,
          1715.0,
          1721.0,
          1726.0,
          1728.0,
          1724.0,
          1721.0,
          1721.0,
          1719.0,
          1714.0,
          1721.0,
          1720.0,
          1722.0,
          1725.0,
          1729.0,
          1726.0,
          1730.0,
          1721.0,
          1720.0,
          1718.0,
          1720.0,
          1725.0,
          1723.0,
          1723.0,
          1725.0,
          1729.0,
          1729.0,
          1727.0,
          1720.0,
          1718.0,
          1718.0,
          1720.0,
          1718.0,
          1721.0,
          1721.0,
          1721.0,
          1726.0,
          1723.0,
          1715.0,
          1708.0,
          1722.0,
          1720.0,
          1721.0,
          1718.0,
          1726.0,
          1716.0,
          1723.0,
          1730.0,
          1724.0,
          1727.0,
          1721.0,
          1712.0,
          1715.0,
          1717.0
        ]
      },
      "slices": {}
    }
  },
  "dummy_trs": 0,
  "dvars_nstd": 38.27455891679687,
  "dvars_std": 1.3628803290624996,
  "dvars_vstd": 1.0667849050000002,
  "efc": 0.5590934742252565,
  "fber": 1761.1326904296875,
  "fd_mean": 0.5988312868479748,
  "fd_num": 111,
  "fd_perc": 86.04651162790698,
  "fwhm_avg": 1.561086976666776,
  "fwhm_x": 1.4626433333333333,
  "fwhm_y": 1.77356,
  "fwhm_z": 1.447057596666995,
  "gcor": 0.0576488,
  "gsr_x": -0.001980291912332177,
  "gsr_y": 0.0461617149412632,
  "provenance": {
    "md5sum": "2964e661996ae9f1d51fb3fa9bd35d49",
    "settings": {
      "fd_thres": 0.2,
      "testing": false
    },
    "software": "mriqc",
    "version": "22.0.1",
    "webapi_port": null,
    "webapi_url": "https://mriqc.nimh.nih.gov/api/v1"
  },
  "size_t": 129,
  "size_x": 64,
  "size_y": 64,
  "size_z": 34,
  "snr": 7.119722575789034,
  "spacing_tr": 2.3399999141693115,
  "spacing_x": 3.0,
  "spacing_y": 3.0,
  "spacing_z": 3.299999952316284,
  "summary_bg_k": 39.73512527674192,
  "summary_bg_mad": 9.734604957244143,
  "summary_bg_mean": 38.14181137084961,
  "summary_bg_median": 22.294572830200195,
  "summary_bg_n": 75169.0,
  "summary_bg_p05": 12.56589126586914,
  "summary_bg_p95": 108.6620132446283,
  "summary_bg_stdv": 57.95974349975586,
  "summary_fg_k": 5.770547529983155,
  "summary_fg_mad": 112.21232887797827,
  "summary_fg_mean": 958.1751098632812,
  "summary_fg_median": 954.786865234375,
  "summary_fg_n": 32364.0,
  "summary_fg_p05": 777.9670562744141,
  "summary_fg_p95": 1151.6705017089844,
  "summary_fg_stdv": 134.10243225097656,
  "tsnr": 49.875522895599715
}