{
  "aor": 0.005435581395348837,
  "aqi": 0.015297703565891474,
  "bids_meta": {
    "AcquisitionMatrixPE": 64,
    "AcquisitionNumber": 1,
    "AcquisitionTime": "12:39:23.550000",
    "BandwidthPerPixelPhaseEncode": 24.038,
    "BaseResolution": 64,
    "BodyPartExamined": "HEAD",
    "ConsistencyInfo": "N4_VD13A_LATEST_20120616",
    "ConversionSoftware": "dcm2niix",
    "ConversionSoftwareVersion": "v1.0.20181125  GCC6.3.0",
    "DerivedVendorReportedEchoSpacing": 0.000650012,
    "DeviceSerialNumber": "45250",
    "DwellTime": 4.6e-06,
    "EchoTime": 0.033,
    "EchoTrainLength": 64,
    "EffectiveEchoSpacing": 0.000650012,
    "FlipAngle": 90,
    "ImageOrientationPatientDICOM": [
      0.999923,
      -0.00150172,
      0.0123012,
      0.00349042,
      0.986573,
      -0.163285
    ],
    "ImageType": [
      "ORIGINAL",
      "PRIMARY",
      "M",
      "ND",
      "NORM",
      "MOSAIC"
    ],
    "ImagingFrequency": 123.214,
    "InPlanePhaseEncodingDirectionDICOM": "COL",
    "InstitutionAddress": "Kopernikusstr._26_Graz_Graz_AT_8010",
    "InstitutionName": "KFU",
    "InstitutionalDepartmentName": "Department",
    "MRAcquisitionType": "2D",
    "MagneticFieldStrength": 3,
    "Manufacturer": "Siemens",
    "ManufacturersModelName": "Skyra",
    "Modality": "MR",
    "PartialFourier": 1,
    "PatientPosition": "HFS",
    "PercentPhaseFOV": 100,
    "PhaseEncodingDirection": "j-",
    "PhaseEncodingSteps": 64,
    "PhaseResolution": 1,
    "PixelBandwidth": 1700,
    "ProcedureStepDescription": "KFU_Entw-Psy",
    "ProtocolName": "fMRI_2",
    "PulseSequenceDetails": "%SiemensSeq%_ep2d_pace",
    "ReceiveCoilActiveElements": "HE1-4",
    "ReceiveCoilName": "HeadNeck_20",
    "ReconMatrixPE": 64,
    "RepetitionTime": 2.34,
    "SAR": 0.264147,
    "ScanOptions": "FS",
    "ScanningSequence": "EP",
    "SequenceName": "_epfid2d1_64",
    "SequenceVariant": "SK",
    "SeriesDescription": "fMRI_2",
    "SeriesNumber": 5,
    "ShimSetting": [
      -1551,
      -3688,
      -4340,
      502,
      376,
      130,
      311,
      -439
    ],
    "SliceThickness": 3,
    "SliceTiming": [
      2.2525,
      2.185,
      2.115,
      2.0475,
      1.98,
      1.91,
      1.8425,
      1.775,
      1.7075,
      1.6375,
      1.57,
      1.5025,
      1.4325,
      1.365,
      1.2975,
      1.23,
      1.16,
      1.0925,
      1.025,
      0.955,
      0.8875,
      0.82,
      0.7525,
      0.6825,
      0.615,
      0.5475,
      0.4775,
      0.41,
      0.3425,
      0.2725,
      0.205,
      0.1375,
      0.07,
      0
    ],
    "SoftwareVersions": "syngo_MR_D13",
    "SpacingBetweenSlices": 3.3,
    "StationName": "FBMTMR1",
    "TaskName": "read",
    "TotalReadoutTime": 0.0409508,
    "TxRefAmp": 384.401,
    "dataset": "ds003126",
    "dcmmeta_affine": [
      [
        -2.999769687652588,
        0.01047124806791544,
        0.039239656180143356,
        97.2734375
      ],
      [
        0.004505152348428965,
        2.9597184658050537,
        -0.5389397144317627,
        -113.07286071777344
      ],
      [
        0.03690354898571968,
        0.48985400795936584,
        3.255457639694214,
        -22.468997955322266
      ],
      [
        0.0,
        0.0,
        0.0,
        1.0
      ]
    ],
    "dcmmeta_reorient_transform": [
      [
        0.0,
        -1.0,
        0.0,
        63.0
      ],
      [
        1.0,
        0.0,
        0.0,
        0.0
      ],
      [
        0.0,
        0.0,
        1.0,
        0.0
      ],
      [
        0.0,
        0.0,
        0.0,
        1.0
      ]
    ],
    "dcmmeta_shape": [
      64,
      64,
      34,
      129
    ],
    "dcmmeta_slice_dim": 2,
    "dcmmeta_version": 0.6,
    "global": {
      "const": {
        "AcquisitionMatrix": [
          64,
          0,
          0,
          64
        ],
        "AngioFlag": "N",
        "BitsAllocated": 16,
        "BitsStored": 12,
        "BodyPartExamined": "HEAD",
        "Columns": 384,
        "EchoNumbers": 1,
        "EchoTime": 33.0,
        "EchoTrainLength": 64,
        "FlipAngle": 90.0,
        "HighBit": 11,
        "ImageOrientationPatient": [
          0.99992320992538,
          -0.0015017173879,
          0.01230118276472,
          0.00349041613755,
          0.98657282251535,
          -0.1632846682003
        ],
        "ImagePositionPatient": [
          -579.57166979774,
          -546.22353116887,
          80.863877976483
        ],
        "ImageType": [
          "ORIGINAL",
          "PRIMARY",
          "M",
          "ND",
          "NORM",
          "MOSAIC"
        ],
        "ImagedNucleus": "1H",
        "ImagingFrequency": 123.21432,
        "InPlanePhaseEncodingDirection": "COL",
        "MRAcquisitionType": "2D",
        "MagneticFieldStrength": 3.0,
        "Manufacturer": "SIEMENS",
        "ManufacturerModelName": "Skyra",
        "Modality": "MR",
        "NumberOfAverages": 1.0,
        "NumberOfPhaseEncodingSteps": 64,
        "PercentPhaseFieldOfView": 100.0,
        "PercentSampling": 100.0,
        "PerformedProcedureStepStartTime": "122658.948000",
        "PhotometricInterpretation": "MONOCHROME2",
        "PixelBandwidth": 1700.0,
        "PixelRepresentation": 0,
        "PixelSpacing": [
          3.0,
          3.0
        ],
        "ProtocolName": "fMRI_2",
        "RepetitionTime": 2340.0,
        "Rows": 384,
        "SAR": 0.26414746252245,
        "SamplesPerPixel": 1,
        "ScanOptions": "FS",
        "ScanningSequence": "EP",
        "SequenceName": "*epfid2d1_64",
        "SequenceVariant": "SK",
        "SeriesDescription": "fMRI_2",
        "SeriesNumber": 5,
        "SeriesTime": "124019.475000",
        "SliceLocation": -2.542556100864,
        "SliceThickness": 3.0,
        "SmallestImagePixelValue": 0,
        "SoftwareVersions": "syngo MR D13",
        "SpacingBetweenSlices": 3.3000000141821,
        "SpecificCharacterSet": "ISO_IR 100",
        "StudyID": "1",
        "StudyTime": "122658.891000",
        "TransmitCoilName": "Body",
        "VariableFlipAngleFlag": "N",
        "WindowCenterWidthExplanation": "Algo1",
        "dBdt": 0.0
      },
      "slices": {}
    },
    "modality": "bold",
    "run_id": 2,
    "session_id": "2",
    "subject_id": "047EPKL014036",
    "task_id": "read",
    "time": {
      "samples": {
        "AcquisitionNumber": [
          1,
          2,
          3,
          4,
          5,
          6,
          7,
          8,
          9,
          10,
          11,
          12,
          13,
          14,
          15,
          16,
          17,
          18,
          19,
          20,
          21,
          22,
          23,
          24,
          25,
          26,
          27,
          28,
          29,
          30,
          31,
          32,
          33,
          34,
          35,
          36,
          37,
          38,
          39,
          40,
          41,
          42,
          43,
          44,
          45,
          46,
          47,
          48,
          49,
          50,
          51,
          52,
          53,
          54,
          55,
          56,
          57,
          58,
          59,
          60,
          61,
          62,
          63,
          64,
          65,
          66,
          67,
          68,
          69,
          70,
          71,
          72,
          73,
          74,
          75,
          76,
          77,
          78,
          79,
          80,
          81,
          82,
          83,
          84,
          85,
          86,
          87,
          88,
          89,
          90,
          91,
          92,
          93,
          94,
          95,
          96,
          97,
          98,
          99,
          100,
          101,
          102,
          103,
          104,
          105,
          106,
          107,
          108,
          109,
          110,
          111,
          112,
          113,
          114,
          115,
          116,
          117,
          118,
          119,
          120,
          121,
          122,
          123,
          124,
          125,
          126,
          127,
          128,
          129
        ],
        "AcquisitionTime": [
          "123923.550000",
          "123925.890000",
          "123928.230000",
          "123930.570000",
          "123932.910000",
          "123935.250000",
          "123937.590000",
          "123939.930000",
          "123942.270000",
          "123944.610000",
          "123946.950000",
          "123949.290000",
          "123951.630000",
          "123953.970000",
          "123956.310000",
          "123958.650000",
          "124000.990000",
          "124003.330000",
          "124005.670000",
          "124008.010000",
          "124010.350000",
          "124012.690000",
          "124015.030000",
          "124017.370000",
          "124019.710000",
          "124022.050000",
          "124024.390000",
          "124026.730000",
          "124029.070000",
          "124031.410000",
          "124033.750000",
          "124036.090000",
          "124038.430000",
          "124040.770000",
          "124043.110000",
          "124045.450000",
          "124047.790000",
          "124050.130000",
          "124052.470000",
          "124054.810000",
          "124057.150000",
          "124059.490000",
          "124101.830000",
          "124104.170000",
          "124106.510000",
          "124108.850000",
          "124111.190000",
          "124113.530000",
          "124115.870000",
          "124118.210000",
          "124120.550000",
          "124122.890000",
          "124125.230000",
          "124127.570000",
          "124129.910000",
          "124132.250000",
          "124134.590000",
          "124136.930000",
          "124139.270000",
          "124141.610000",
          "124143.950000",
          "124146.290000",
          "124148.630000",
          "124150.970000",
          "124153.310000",
          "124155.650000",
          "124157.990000",
          "124200.330000",
          "124202.670000",
          "124205.010000",
          "124207.350000",
          "124209.690000",
          "124212.030000",
          "124214.370000",
          "124216.710000",
          "124219.050000",
          "124221.390000",
          "124223.730000",
          "124226.070000",
          "124228.410000",
          "124230.750000",
          "124233.090000",
          "124235.430000",
          "124237.770000",
          "124240.110000",
          "124242.450000",
          "124244.790000",
          "124247.130000",
          "124249.470000",
          "124251.810000",
          "124254.150000",
          "124256.490000",
          "124258.830000",
          "124301.170000",
          "124303.510000",
          "124305.850000",
          "124308.190000",
          "124310.530000",
          "124312.870000",
          "124315.210000",
          "124317.550000",
          "124319.890000",
          "124322.230000",
          "124324.570000",
          "124326.910000",
          "124329.250000",
          "124331.590000",
          "124333.930000",
          "124336.270000",
          "124338.610000",
          "124340.950000",
          "124343.290000",
          "124345.630000",
          "124347.970000",
          "124350.310000",
          "124352.650000",
          "124354.990000",
          "124357.330000",
          "124359.670000",
          "124402.010000",
          "124404.350000",
          "124406.690000",
          "124409.030000",
          "124411.370000",
          "124413.710000",
          "124416.050000",
          "124418.390000",
          "124420.730000",
          "124423.070000"
        ],
        "ContentTime": [
          "124019.480000",
          "124019.484000",
          "124019.492000",
          "124019.495000",
          "124019.497000",
          "124019.505000",
          "124019.508000",
          "124019.510000",
          "124019.513000",
          "124019.515000",
          "124019.518000",
          "124019.521000",
          "124019.524000",
          "124019.527000",
          "124019.530000",
          "124019.532000",
          "124019.535000",
          "124019.538000",
          "124019.541000",
          "124019.544000",
          "124019.546000",
          "124019.549000",
          "124019.552000",
          "124019.555000",
          "124119.473000",
          "124119.477000",
          "124119.480000",
          "124119.482000",
          "124119.493000",
          "124119.496000",
          "124119.499000",
          "124119.502000",
          "124119.505000",
          "124119.508000",
          "124119.511000",
          "124119.514000",
          "124119.516000",
          "124119.519000",
          "124119.522000",
          "124119.525000",
          "124119.528000",
          "124119.530000",
          "124119.533000",
          "124119.536000",
          "124119.547000",
          "124119.550000",
          "124119.552000",
          "124119.555000",
          "124119.558000",
          "124119.560000",
          "124219.474000",
          "124219.477000",
          "124219.480000",
          "124219.483000",
          "124219.485000",
          "124219.488000",
          "124219.491000",
          "124219.493000",
          "124219.496000",
          "124219.499000",
          "124219.501000",
          "124219.504000",
          "124219.507000",
          "124219.510000",
          "124219.512000",
          "124219.515000",
          "124219.518000",
          "124219.521000",
          "124219.523000",
          "124219.526000",
          "124219.529000",
          "124219.532000",
          "124219.535000",
          "124219.538000",
          "124219.541000",
          "124319.473000",
          "124319.476000",
          "124319.487000",
          "124319.490000",
          "124319.493000",
          "124319.496000",
          "124319.499000",
          "124319.501000",
          "124319.504000",
          "124319.507000",
          "124319.510000",
          "124319.512000",
          "124319.515000",
          "124319.517000",
          "124319.520000",
          "124319.523000",
          "124319.525000",
          "124319.528000",
          "124319.531000",
          "124319.533000",
          "124319.536000",
          "124319.538000",
          "124319.541000",
          "124319.544000",
          "124319.546000",
          "124319.549000",
          "124419.475000",
          "124419.478000",
          "124419.481000",
          "124419.484000",
          "124419.487000",
          "124419.490000",
          "124419.493000",
          "124419.496000",
          "124419.498000",
          "124419.501000",
          "124419.504000",
          "124419.507000",
          "124419.510000",
          "124419.513000",
          "124419.516000",
          "124419.519000",
          "124419.521000",
          "124419.524000",
          "124419.527000",
          "124419.530000",
          "124419.533000",
          "124419.536000",
          "124419.539000",
          "124419.542000",
          "124419.545000",
          "124419.548000",
          "124425.712000",
          "124425.716000"
        ],
        "InstanceCreationTime": [
          "124019.480000",
          "124019.484000",
          "124019.492000",
          "124019.495000",
          "124019.497000",
          "124019.505000",
          "124019.508000",
          "124019.510000",
          "124019.513000",
          "124019.515000",
          "124019.518000",
          "124019.521000",
          "124019.524000",
          "124019.527000",
          "124019.530000",
          "124019.532000",
          "124019.535000",
          "124019.538000",
          "124019.541000",
          "124019.544000",
          "124019.546000",
          "124019.549000",
          "124019.552000",
          "124019.555000",
          "124119.473000",
          "124119.477000",
          "124119.480000",
          "124119.482000",
          "124119.493000",
          "124119.496000",
          "124119.499000",
          "124119.502000",
          "124119.505000",
          "124119.508000",
          "124119.511000",
          "124119.514000",
          "124119.516000",
          "124119.519000",
          "124119.522000",
          "124119.525000",
          "124119.528000",
          "124119.530000",
          "124119.533000",
          "124119.536000",
          "124119.547000",
          "124119.550000",
          "124119.552000",
          "124119.555000",
          "124119.558000",
          "124119.560000",
          "124219.474000",
          "124219.477000",
          "124219.480000",
          "124219.483000",
          "124219.485000",
          "124219.488000",
          "124219.491000",
          "124219.493000",
          "124219.496000",
          "124219.499000",
          "124219.501000",
          "124219.504000",
          "124219.507000",
          "124219.510000",
          "124219.512000",
          "124219.515000",
          "124219.518000",
          "124219.521000",
          "124219.523000",
          "124219.526000",
          "124219.529000",
          "124219.532000",
          "124219.535000",
          "124219.538000",
          "124219.541000",
          "124319.473000",
          "124319.476000",
          "124319.487000",
          "124319.490000",
          "124319.493000",
          "124319.496000",
          "124319.499000",
          "124319.501000",
          "124319.504000",
          "124319.507000",
          "124319.510000",
          "124319.512000",
          "124319.515000",
          "124319.517000",
          "124319.520000",
          "124319.523000",
          "124319.525000",
          "124319.528000",
          "124319.531000",
          "124319.533000",
          "124319.536000",
          "124319.538000",
          "124319.541000",
          "124319.544000",
          "124319.546000",
          "124319.549000",
          "124419.475000",
          "124419.478000",
          "124419.481000",
          "124419.484000",
          "124419.487000",
          "124419.490000",
          "124419.493000",
          "124419.496000",
          "124419.498000",
          "124419.501000",
          "124419.504000",
          "124419.507000",
          "124419.510000",
          "124419.513000",
          "124419.516000",
          "124419.519000",
          "124419.521000",
          "124419.524000",
          "124419.527000",
          "124419.530000",
          "124419.533000",
          "124419.536000",
          "124419.539000",
          "124419.542000",
          "124419.545000",
          "124419.548000",
          "124425.712000",
          "124425.716000"
        ],
        "InstanceNumber": [
          1,
          2,
          3,
          4,
          5,
          6,
          7,
          8,
          9,
          10,
          11,
          12,
          13,
          14,
          15,
          16,
          17,
          18,
          19,
          20,
          21,
          22,
          23,
          24,
          25,
          26,
          27,
          28,
          29,
          30,
          31,
          32,
          33,
          34,
          35,
          36,
          37,
          38,
          39,
          40,
          41,
          42,
          43,
          44,
          45,
          46,
          47,
          48,
          49,
          50,
          51,
          52,
          53,
          54,
          55,
          56,
          57,
          58,
          59,
          60,
          61,
          62,
          63,
          64,
          65,
          66,
          67,
          68,
          69,
          70,
          71,
          72,
          73,
          74,
          75,
          76,
          77,
          78,
          79,
          80,
          81,
          82,
          83,
          84,
          85,
          86,
          87,
          88,
          89,
          90,
          91,
          92,
          93,
          94,
          95,
          96,
          97,
          98,
          99,
          100,
          101,
          102,
          103,
          104,
          105,
          106,
          107,
          108,
          109,
          110,
          111,
          112,
          113,
          114,
          115,
          116,
          117,
          118,
          119,
          120,
          121,
          122,
          123,
          124,
          125,
          126,
          127,
          128,
          129
        ],
        "LargestImagePixelValue": [
          2186,
          2149,
          2446,
          2381,
          1822,
          2419,
          2515,
          1844,
          2474,
          2669,
          1929,
          1778,
          2210,
          1947,
          1979,
          2167,
          2269,
          1888,
          1807,
          1887,
          2154,
          1973,
          2453,
          2012,
          2033,
          2348,
          2371,
          2088,
          2116,
          1837,
          2363,
          1849,
          2142,
          1698,
          2153,
          2025,
          2214,
          2072,
          2155,
          2013,
          2313,
          2149,
          1943,
          2012,
          2151,
          2543,
          2340,
          1981,
          2266,
          2783,
          2130,
          1718,
          2275,
          1816,
          1902,
          2190,
          1894,
          2294,
          2280,
          2092,
          1878,
          1847,
          1742,
          1820,
          2339,
          2239,
          1756,
          2134,
          2145,
          2622,
          1922,
          2403,
          1926,
          2335,
          2170,
          1706,
          2162,
          2192,
          1959,
          1959,
          2230,
          2149,
          2335,
          2059,
          1878,
          1843,
          1805,
          1755,
          2459,
          2284,
          2118,
          2141,
          2228,
          1840,
          2133,
          2366,
          2020,
          2019,
          2091,
          1879,
          1962,
          2111,
          2059,
          1709,
          2256,
          1983,
          1980,
          2274,
          2413,
          2370,
          1930,
          2115,
          1986,
          2094,
          2368,
          2063,
          1809,
          2558,
          1771,
          1982,
          1858,
          1717,
          1896,
          2047,
          1923,
          2485,
          2200,
          1848,
          2446
        ],
        "WindowCenter": [
          701.0,
          700.0,
          700.0,
          698.0,
          698.0,
          700.0,
          698.0,
          695.0,
          698.0,
          697.0,
          697.0,
          697.0,
          698.0,
          697.0,
          697.0,
          696.0,
          695.0,
          696.0,
          695.0,
          699.0,
          698.0,
          699.0,
          700.0,
          698.0,
          700.0,
          698.0,
          697.0,
          696.0,
          695.0,
          697.0,
          698.0,
          696.0,
          696.0,
          697.0,
          699.0,
          698.0,
          698.0,
          699.0,
          698.0,
          698.0,
          699.0,
          699.0,
          698.0,
          700.0,
          699.0,
          701.0,
          698.0,
          697.0,
          699.0,
          699.0,
          696.0,
          699.0,
          698.0,
          698.0,
          698.0,
          697.0,
          697.0,
          699.0,
          697.0,
          695.0,
          696.0,
          696.0,
          697.0,
          702.0,
          700.0,
          699.0,
          699.0,
          701.0,
          700.0,
          702.0,
          700.0,
          699.0,
          699.0,
          700.0,
          696.0,
          701.0,
          701.0,
          698.0,
          698.0,
          699.0,
          698.0,
          698.0,
          699.0,
          698.0,
          698.0,
          699.0,
          700.0,
          700.0,
          702.0,
          699.0,
          698.0,
          701.0,
          700.0,
          700.0,
          700.0,
          699.0,
          698.0,
          701.0,
          700.0,
          700.0,
          702.0,
          702.0,
          701.0,
          704.0,
          701.0,
          701.0,
          700.0,
          701.0,
          701.0,
          698.0,
          698.0,
          702.0,
          698.0,
          701.0,
          703.0,
          701.0,
          701.0,
          703.0,
          699.0,
          700.0,
          699.0,
          700.0,
          700.0,
          704.0,
          703.0,
          703.0,
          699.0,
          699.0,
          700.0
        ],
        "WindowWidth": [
          1482.0,
          1481.0,
          1481.0,
          1476.0,
          1476.0,
          1480.0,
          1475.0,
          1469.0,
          1476.0,
          1472.0,
          1472.0,
          1472.0,
          1476.0,
          1474.0,
          1474.0,
          1472.0,
          1469.0,
          1470.0,
          1469.0,
          1476.0,
          1476.0,
          1477.0,
          1480.0,
          1476.0,
          1481.0,
          1475.0,
          1473.0,
          1472.0,
          1469.0,
          1473.0,
          1475.0,
          1470.0,
          1472.0,
          1472.0,
          1478.0,
          1475.0,
          1475.0,
          1479.0,
          1476.0,
          1475.0,
          1478.0,
          1477.0,
          1477.0,
          1482.0,
          1477.0,
          1483.0,
          1474.0,
          1473.0,
          1479.0,
          1479.0,
          1470.0,
          1478.0,
          1475.0,
          1475.0,
          1476.0,
          1474.0,
          1474.0,
          1479.0,
          1474.0,
          1468.0,
          1471.0,
          1470.0,
          1473.0,
          1484.0,
          1480.0,
          1478.0,
          1478.0,
          1483.0,
          1479.0,
          1485.0,
          1480.0,
          1479.0,
          1479.0,
          1481.0,
          1469.0,
          1482.0,
          1483.0,
          1477.0,
          1477.0,
          1479.0,
          1477.0,
          1476.0,
          1478.0,
          1475.0,
          1476.0,
          1477.0,
          1481.0,
          1480.0,
          1486.0,
          1478.0,
          1474.0,
          1483.0,
          1480.0,
          1481.0,
          1482.0,
          1477.0,
          1475.0,
          1484.0,
          1479.0,
          1480.0,
          1486.0,
          1483.0,
          1482.0,
          1490.0,
          1483.0,
          1482.0,
          1480.0,
          1483.0,
          1483.0,
          1474.0,
          1475.0,
          1485.0,
          1475.0,
          1482.0,
          1487.0,
          1483.0,
          1483.0,
          1489.0,
          1477.0,
          1482.0,
          1478.0,
          1480.0,
          1480.0,
          1487.0,
          1488.0,
          1487.0,
          1477.0,
          1478.0,
          1480.0
        ]
      },
      "slices": {}
    }
  },
  "dummy_trs": 0,
  "dvars_nstd": 41.01395337289063,
  "dvars_std": 1.3854364501562502,
  "dvars_vstd": 1.040473807812501,
  "efc": 0.5313123280753743,
  "fber": 1724.0931396484375,
  "fd_mean": 0.49798907236099677,
  "fd_num": 118,
  "fd_perc": 91.47286821705427,
  "fwhm_avg": 1.7125910178148693,
  "fwhm_x": 1.60389,
  "fwhm_y": 1.9323466666666667,
  "fwhm_z": 1.6015363867779413,
  "gcor": 0.0472577,
  "gsr_x": -0.0033837154041975737,
  "gsr_y": 0.0373365618288517,
  "provenance": {
    "md5sum": "b0ea5f52ccd81febf15e3b9d1b78aa60",
    "settings": {
      "fd_thres": 0.2,
      "testing": false
    },
    "software": "mriqc",
    "version": "22.0.1",
    "webapi_port": null,
    "webapi_url": "https://mriqc.nimh.nih.gov/api/v1"
  },
  "size_t": 129,
  "size_x": 64,
  "size_y": 64,
  "size_z": 34,
  "snr": 6.508754474959879,
  "spacing_tr": 2.3399999141693115,
  "spacing_x": 3.0,
  "spacing_y": 3.0,
  "spacing_z": 3.299999952316284,
  "summary_bg_k": 49.44394041590502,
  "summary_bg_mad": 7.171655007037872,
  "summary_bg_mean": 30.4515438079834,
  "summary_bg_median": 18.64341163635254,
  "summary_bg_n": 79669.0,
  "summary_bg_p05": 10.333333015441895,
  "summary_bg_p95": 70.06201171875,
  "summary_bg_stdv": 51.046775817871094,
  "summary_fg_k": 2.848141920431944,
  "summary_fg_mad": 109.14934906882989,
  "summary_fg_mean": 792.64013671875,
  "summary_fg_median": 786.4883422851562,
  "summary_fg_n": 28751.0,
  "summary_fg_p05": 626.1744079589844,
  "summary_fg_p95": 988.3178100585938,
  "summary_fg_stdv": 120.83335876464844,
  "tsnr": 52.03002869093325
}