{
  "aor": 0.0036038888888888887,
  "aqi": 0.017141395952380952,
  "bids_meta": {
    "AcquisitionMatrixPE": 64,
    "AcquisitionNumber": 1,
    "AcquisitionTime": "12:33:49.645000",
    "BandwidthPerPixelPhaseEncode": 24.038,
    "BaseResolution": 64,
    "BodyPartExamined": "HEAD",
    "ConsistencyInfo": "N4_VD13A_LATEST_20120616",
    "ConversionSoftware": "dcm2niix",
    "ConversionSoftwareVersion": "v1.0.20181125  GCC6.3.0",
    "DerivedVendorReportedEchoSpacing": 0.000650012,
    "DeviceSerialNumber": "45250",
    "DwellTime": 4.6e-06,
    "EchoTime": 0.033,
    "EchoTrainLength": 64,
    "EffectiveEchoSpacing": 0.000650012,
    "FlipAngle": 90,
    "ImageOrientationPatientDICOM": [
      0.997841,
      -0.0656731,
      0.000233092,
      0.0645275,
      0.979763,
      -0.189477
    ],
    "ImageType": [
      "ORIGINAL",
      "PRIMARY",
      "M",
      "ND",
      "NORM",
      "MOSAIC"
    ],
    "ImagingFrequency": 123.214,
    "InPlanePhaseEncodingDirectionDICOM": "COL",
    "InstitutionAddress": "Kopernikusstr._26_Graz_Graz_AT_8010",
    "InstitutionName": "KFU",
    "InstitutionalDepartmentName": "Department",
    "MRAcquisitionType": "2D",
    "MagneticFieldStrength": 3,
    "Manufacturer": "Siemens",
    "ManufacturersModelName": "Skyra",
    "Modality": "MR",
    "PartialFourier": 1,
    "PatientPosition": "HFS",
    "PercentPhaseFOV": 100,
    "PhaseEncodingDirection": "j-",
    "PhaseEncodingSteps": 64,
    "PhaseResolution": 1,
    "PixelBandwidth": 1700,
    "ProcedureStepDescription": "KFU_Entw-Psy",
    "ProtocolName": "fMRI_1",
    "PulseSequenceDetails": "%SiemensSeq%_ep2d_pace",
    "ReceiveCoilActiveElements": "HE1-4",
    "ReceiveCoilName": "HeadNeck_20",
    "ReconMatrixPE": 64,
    "RepetitionTime": 2.34,
    "SAR": 0.197465,
    "ScanOptions": "FS",
    "ScanningSequence": "EP",
    "SequenceName": "_epfid2d1_64",
    "SequenceVariant": "SK",
    "SeriesDescription": "fMRI_1",
    "SeriesNumber": 2,
    "ShimSetting": [
      -1607,
      -3705,
      -4216,
      454,
      388,
      335,
      491,
      -127
    ],
    "SliceThickness": 3,
    "SliceTiming": [
      2.2525,
      2.1825,
      2.115,
      2.0475,
      1.9775,
      1.91,
      1.8425,
      1.775,
      1.705,
      1.6375,
      1.57,
      1.5,
      1.4325,
      1.365,
      1.2975,
      1.2275,
      1.16,
      1.0925,
      1.0225,
      0.955,
      0.8875,
      0.8175,
      0.75,
      0.6825,
      0.615,
      0.545,
      0.4775,
      0.41,
      0.34,
      0.2725,
      0.205,
      0.1375,
      0.0675,
      0
    ],
    "SoftwareVersions": "syngo_MR_D13",
    "SpacingBetweenSlices": 3.3,
    "StationName": "FBMTMR1",
    "TaskName": "read",
    "TotalReadoutTime": 0.0409508,
    "TxRefAmp": 328.632,
    "dataset": "ds003126",
    "dcmmeta_affine": [
      [
        -2.993523597717285,
        0.19358250498771667,
        -0.04030996188521385,
        89.95134735107422
      ],
      [
        0.19701924920082092,
        2.9392879009246826,
        -0.6239726543426514,
        -111.97669219970703
      ],
      [
        0.0006992749986238778,
        0.5684298872947693,
        3.2402212619781494,
        -17.386327743530273
      ],
      [
        0.0,
        0.0,
        0.0,
        1.0
      ]
    ],
    "dcmmeta_reorient_transform": [
      [
        0.0,
        -1.0,
        0.0,
        63.0
      ],
      [
        1.0,
        0.0,
        0.0,
        0.0
      ],
      [
        0.0,
        0.0,
        1.0,
        0.0
      ],
      [
        0.0,
        0.0,
        0.0,
        1.0
      ]
    ],
    "dcmmeta_shape": [
      64,
      64,
      34,
      126
    ],
    "dcmmeta_slice_dim": 2,
    "dcmmeta_version": 0.6,
    "global": {
      "const": {
        "AcquisitionMatrix": [
          64,
          0,
          0,
          64
        ],
        "AngioFlag": "N",
        "BitsAllocated": 16,
        "BitsStored": 12,
        "BodyPartExamined": "HEAD",
        "Columns": 384,
        "EchoNumbers": 1,
        "EchoTime": 33.0,
        "EchoTrainLength": 64,
        "FlipAngle": 90.0,
        "HighBit": 11,
        "ImageOrientationPatient": [
          0.99784116565758,
          -0.0656730826702,
          0.00023309167143,
          0.06452750179534,
          0.97976262982498,
          -0.1894766231241
        ],
        "ImagePositionPatient": [
          -612.08400705529,
          -511.96142953348,
          109.26164974446
        ],
        "ImageType": [
          "ORIGINAL",
          "PRIMARY",
          "M",
          "ND",
          "NORM",
          "MOSAIC"
        ],
        "ImagedNucleus": "1H",
        "ImagingFrequency": 123.214443,
        "InPlanePhaseEncodingDirection": "COL",
        "MRAcquisitionType": "2D",
        "MagneticFieldStrength": 3.0,
        "Manufacturer": "SIEMENS",
        "ManufacturerModelName": "Skyra",
        "Modality": "MR",
        "NumberOfAverages": 1.0,
        "NumberOfPhaseEncodingSteps": 64,
        "PercentPhaseFieldOfView": 100.0,
        "PercentSampling": 100.0,
        "PerformedProcedureStepStartTime": "122547.016000",
        "PhotometricInterpretation": "MONOCHROME2",
        "PixelBandwidth": 1700.0,
        "PixelRepresentation": 0,
        "PixelSpacing": [
          3.0,
          3.0
        ],
        "ProtocolName": "fMRI_1",
        "RepetitionTime": 2340.0,
        "Rows": 384,
        "SAR": 0.19746506980646,
        "SamplesPerPixel": 1,
        "ScanOptions": "FS",
        "ScanningSequence": "EP",
        "SequenceName": "*epfid2d1_64",
        "SequenceVariant": "SK",
        "SeriesDescription": "fMRI_1",
        "SeriesNumber": 2,
        "SeriesTime": "123453.940000",
        "SliceLocation": 3.0026997928435,
        "SliceThickness": 3.0,
        "SmallestImagePixelValue": 0,
        "SoftwareVersions": "syngo MR D13",
        "SpacingBetweenSlices": 3.3000000922586,
        "SpecificCharacterSet": "ISO_IR 100",
        "StudyID": "1",
        "StudyTime": "122546.952000",
        "TransmitCoilName": "Body",
        "VariableFlipAngleFlag": "N",
        "WindowCenterWidthExplanation": "Algo1",
        "dBdt": 0.0
      },
      "slices": {}
    },
    "modality": "bold",
    "run_id": 1,
    "session_id": "2",
    "subject_id": "047EPKL013016",
    "task_id": "read",
    "time": {
      "samples": {
        "AcquisitionNumber": [
          1,
          2,
          3,
          4,
          5,
          6,
          7,
          8,
          9,
          10,
          11,
          12,
          13,
          14,
          15,
          16,
          17,
          18,
          19,
          20,
          21,
          22,
          23,
          24,
          25,
          26,
          27,
          28,
          29,
          30,
          31,
          32,
          33,
          34,
          35,
          36,
          37,
          38,
          39,
          40,
          41,
          42,
          43,
          44,
          45,
          46,
          47,
          48,
          49,
          50,
          51,
          52,
          53,
          54,
          55,
          56,
          57,
          58,
          59,
          60,
          61,
          62,
          63,
          64,
          65,
          66,
          67,
          68,
          69,
          70,
          71,
          72,
          73,
          74,
          75,
          76,
          77,
          78,
          79,
          80,
          81,
          82,
          83,
          84,
          85,
          86,
          87,
          88,
          89,
          90,
          91,
          92,
          93,
          94,
          95,
          96,
          97,
          98,
          99,
          100,
          101,
          102,
          103,
          104,
          105,
          106,
          107,
          108,
          109,
          110,
          111,
          112,
          113,
          114,
          115,
          116,
          117,
          118,
          119,
          120,
          121,
          122,
          123,
          124,
          125,
          126
        ],
        "AcquisitionTime": [
          "123349.645000",
          "123351.985000",
          "123354.325000",
          "123356.665000",
          "123359.005000",
          "123401.345000",
          "123403.685000",
          "123406.025000",
          "123408.365000",
          "123410.705000",
          "123413.045000",
          "123415.385000",
          "123417.725000",
          "123420.065000",
          "123422.405000",
          "123424.745000",
          "123427.085000",
          "123429.425000",
          "123431.765000",
          "123434.105000",
          "123436.445000",
          "123438.785000",
          "123441.125000",
          "123443.465000",
          "123445.805000",
          "123448.145000",
          "123450.485000",
          "123452.825000",
          "123455.165000",
          "123457.505000",
          "123459.845000",
          "123502.185000",
          "123504.525000",
          "123506.865000",
          "123509.205000",
          "123511.545000",
          "123513.885000",
          "123516.225000",
          "123518.565000",
          "123520.905000",
          "123523.245000",
          "123525.585000",
          "123527.925000",
          "123530.265000",
          "123532.605000",
          "123534.945000",
          "123537.285000",
          "123539.625000",
          "123541.965000",
          "123544.305000",
          "123546.645000",
          "123548.985000",
          "123551.325000",
          "123553.665000",
          "123556.005000",
          "123558.345000",
          "123600.685000",
          "123603.025000",
          "123605.365000",
          "123607.705000",
          "123610.045000",
          "123612.385000",
          "123614.725000",
          "123617.065000",
          "123619.405000",
          "123621.745000",
          "123624.085000",
          "123626.425000",
          "123628.765000",
          "123631.105000",
          "123633.445000",
          "123635.785000",
          "123638.125000",
          "123640.465000",
          "123642.805000",
          "123645.145000",
          "123647.485000",
          "123649.825000",
          "123652.165000",
          "123654.505000",
          "123656.845000",
          "123659.185000",
          "123701.525000",
          "123703.865000",
          "123706.205000",
          "123708.545000",
          "123710.885000",
          "123713.225000",
          "123715.565000",
          "123717.905000",
          "123720.245000",
          "123722.585000",
          "123724.925000",
          "123727.265000",
          "123729.605000",
          "123731.945000",
          "123734.285000",
          "123736.625000",
          "123738.965000",
          "123741.305000",
          "123743.645000",
          "123745.985000",
          "123748.325000",
          "123750.665000",
          "123753.005000",
          "123755.345000",
          "123757.685000",
          "123800.025000",
          "123802.365000",
          "123804.705000",
          "123807.045000",
          "123809.385000",
          "123811.725000",
          "123814.065000",
          "123816.405000",
          "123818.745000",
          "123821.085000",
          "123823.425000",
          "123825.765000",
          "123828.105000",
          "123830.445000",
          "123832.785000",
          "123835.125000",
          "123837.465000",
          "123839.805000",
          "123842.145000"
        ],
        "ContentTime": [
          "123453.945000",
          "123453.949000",
          "123453.952000",
          "123453.954000",
          "123453.957000",
          "123453.960000",
          "123453.962000",
          "123453.965000",
          "123453.967000",
          "123453.970000",
          "123453.973000",
          "123453.976000",
          "123453.978000",
          "123453.981000",
          "123453.984000",
          "123453.987000",
          "123453.989000",
          "123453.996000",
          "123454.000000",
          "123454.003000",
          "123454.006000",
          "123454.008000",
          "123454.011000",
          "123454.014000",
          "123454.017000",
          "123454.020000",
          "123454.023000",
          "123454.026000",
          "123553.938000",
          "123553.941000",
          "123553.944000",
          "123553.947000",
          "123553.955000",
          "123553.965000",
          "123553.968000",
          "123553.970000",
          "123553.973000",
          "123553.976000",
          "123553.979000",
          "123553.981000",
          "123553.984000",
          "123553.987000",
          "123553.990000",
          "123553.993000",
          "123553.996000",
          "123553.998000",
          "123554.002000",
          "123554.005000",
          "123554.008000",
          "123554.014000",
          "123554.016000",
          "123554.019000",
          "123554.022000",
          "123653.939000",
          "123653.942000",
          "123653.952000",
          "123653.955000",
          "123653.957000",
          "123653.960000",
          "123653.963000",
          "123653.965000",
          "123653.968000",
          "123653.971000",
          "123653.973000",
          "123653.987000",
          "123653.990000",
          "123653.992000",
          "123653.995000",
          "123653.998000",
          "123654.002000",
          "123654.005000",
          "123654.007000",
          "123654.010000",
          "123654.013000",
          "123654.015000",
          "123654.018000",
          "123654.021000",
          "123654.023000",
          "123654.026000",
          "123733.938000",
          "123733.942000",
          "123733.948000",
          "123733.951000",
          "123733.954000",
          "123733.956000",
          "123733.959000",
          "123733.962000",
          "123733.964000",
          "123733.974000",
          "123733.977000",
          "123733.980000",
          "123733.983000",
          "123733.985000",
          "123733.988000",
          "123733.991000",
          "123733.993000",
          "123833.938000",
          "123833.942000",
          "123833.944000",
          "123833.947000",
          "123833.950000",
          "123833.953000",
          "123833.956000",
          "123833.959000",
          "123833.962000",
          "123833.964000",
          "123833.967000",
          "123833.970000",
          "123833.972000",
          "123833.975000",
          "123833.978000",
          "123833.980000",
          "123833.983000",
          "123833.986000",
          "123833.989000",
          "123833.992000",
          "123833.995000",
          "123833.998000",
          "123834.001000",
          "123834.004000",
          "123834.007000",
          "123834.010000",
          "123844.657000",
          "123844.663000",
          "123844.668000",
          "123844.672000"
        ],
        "InstanceCreationTime": [
          "123453.945000",
          "123453.949000",
          "123453.952000",
          "123453.954000",
          "123453.957000",
          "123453.960000",
          "123453.962000",
          "123453.965000",
          "123453.967000",
          "123453.970000",
          "123453.973000",
          "123453.976000",
          "123453.978000",
          "123453.981000",
          "123453.984000",
          "123453.987000",
          "123453.989000",
          "123453.996000",
          "123454.000000",
          "123454.003000",
          "123454.006000",
          "123454.008000",
          "123454.011000",
          "123454.014000",
          "123454.017000",
          "123454.020000",
          "123454.023000",
          "123454.026000",
          "123553.938000",
          "123553.941000",
          "123553.944000",
          "123553.947000",
          "123553.955000",
          "123553.965000",
          "123553.968000",
          "123553.970000",
          "123553.973000",
          "123553.976000",
          "123553.979000",
          "123553.981000",
          "123553.984000",
          "123553.987000",
          "123553.990000",
          "123553.993000",
          "123553.996000",
          "123553.998000",
          "123554.002000",
          "123554.005000",
          "123554.008000",
          "123554.014000",
          "123554.016000",
          "123554.019000",
          "123554.022000",
          "123653.939000",
          "123653.942000",
          "123653.952000",
          "123653.955000",
          "123653.957000",
          "123653.960000",
          "123653.963000",
          "123653.965000",
          "123653.968000",
          "123653.971000",
          "123653.973000",
          "123653.987000",
          "123653.990000",
          "123653.992000",
          "123653.995000",
          "123653.998000",
          "123654.002000",
          "123654.005000",
          "123654.007000",
          "123654.010000",
          "123654.013000",
          "123654.015000",
          "123654.018000",
          "123654.021000",
          "123654.023000",
          "123654.026000",
          "123733.938000",
          "123733.942000",
          "123733.948000",
          "123733.951000",
          "123733.954000",
          "123733.956000",
          "123733.959000",
          "123733.962000",
          "123733.964000",
          "123733.974000",
          "123733.977000",
          "123733.980000",
          "123733.983000",
          "123733.985000",
          "123733.988000",
          "123733.991000",
          "123733.993000",
          "123833.938000",
          "123833.942000",
          "123833.944000",
          "123833.947000",
          "123833.950000",
          "123833.953000",
          "123833.956000",
          "123833.959000",
          "123833.962000",
          "123833.964000",
          "123833.967000",
          "123833.970000",
          "123833.972000",
          "123833.975000",
          "123833.978000",
          "123833.980000",
          "123833.983000",
          "123833.986000",
          "123833.989000",
          "123833.992000",
          "123833.995000",
          "123833.998000",
          "123834.001000",
          "123834.004000",
          "123834.007000",
          "123834.010000",
          "123844.657000",
          "123844.663000",
          "123844.668000",
          "123844.672000"
        ],
        "InstanceNumber": [
          1,
          2,
          3,
          4,
          5,
          6,
          7,
          8,
          9,
          10,
          11,
          12,
          13,
          14,
          15,
          16,
          17,
          18,
          19,
          20,
          21,
          22,
          23,
          24,
          25,
          26,
          27,
          28,
          29,
          30,
          31,
          32,
          33,
          34,
          35,
          36,
          37,
          38,
          39,
          40,
          41,
          42,
          43,
          44,
          45,
          46,
          47,
          48,
          49,
          50,
          51,
          52,
          53,
          54,
          55,
          56,
          57,
          58,
          59,
          60,
          61,
          62,
          63,
          64,
          65,
          66,
          67,
          68,
          69,
          70,
          71,
          72,
          73,
          74,
          75,
          76,
          77,
          78,
          79,
          80,
          81,
          82,
          83,
          84,
          85,
          86,
          87,
          88,
          89,
          90,
          91,
          92,
          93,
          94,
          95,
          96,
          97,
          98,
          99,
          100,
          101,
          102,
          103,
          104,
          105,
          106,
          107,
          108,
          109,
          110,
          111,
          112,
          113,
          114,
          115,
          116,
          117,
          118,
          119,
          120,
          121,
          122,
          123,
          124,
          125,
          126
        ],
        "LargestImagePixelValue": [
          2798,
          2481,
          3628,
          3587,
          3023,
          2955,
          3688,
          3318,
          2745,
          3549,
          3086,
          3874,
          3376,
          1965,
          2237,
          4095,
          2854,
          2138,
          3373,
          3880,
          2275,
          3467,
          3228,
          3918,
          3417,
          3506,
          3480,
          2615,
          3945,
          1905,
          2360,
          2778,
          3660,
          2452,
          2342,
          3842,
          3326,
          3105,
          2502,
          3205,
          4035,
          2832,
          2051,
          4026,
          2589,
          2846,
          3395,
          3282,
          4095,
          2626,
          2172,
          2913,
          2575,
          3393,
          3891,
          2722,
          2431,
          3627,
          3555,
          2443,
          3887,
          4078,
          2775,
          2434,
          3313,
          2982,
          3764,
          2311,
          3891,
          3747,
          3640,
          2228,
          1964,
          3730,
          2025,
          3533,
          3204,
          3582,
          3144,
          3637,
          2836,
          3488,
          4058,
          3793,
          2608,
          1973,
          3237,
          3990,
          2859,
          3377,
          2990,
          2841,
          2472,
          2106,
          2949,
          3938,
          2582,
          2817,
          4095,
          2293,
          1936,
          3092,
          3598,
          3733,
          3764,
          2865,
          4095,
          2425,
          2996,
          3944,
          2853,
          2047,
          2013,
          2962,
          2494,
          3771,
          3748,
          3131,
          1973,
          3487,
          3200,
          3193,
          2983,
          2131,
          2747,
          3683
        ],
        "WindowCenter": [
          853.0,
          852.0,
          852.0,
          851.0,
          851.0,
          853.0,
          851.0,
          852.0,
          851.0,
          853.0,
          852.0,
          851.0,
          851.0,
          850.0,
          853.0,
          854.0,
          851.0,
          851.0,
          853.0,
          853.0,
          852.0,
          856.0,
          853.0,
          852.0,
          851.0,
          856.0,
          849.0,
          849.0,
          849.0,
          850.0,
          852.0,
          853.0,
          852.0,
          849.0,
          851.0,
          852.0,
          852.0,
          849.0,
          850.0,
          851.0,
          851.0,
          848.0,
          848.0,
          849.0,
          846.0,
          849.0,
          848.0,
          849.0,
          849.0,
          848.0,
          849.0,
          851.0,
          852.0,
          852.0,
          852.0,
          852.0,
          852.0,
          855.0,
          852.0,
          851.0,
          852.0,
          852.0,
          850.0,
          852.0,
          851.0,
          851.0,
          851.0,
          849.0,
          851.0,
          852.0,
          849.0,
          849.0,
          852.0,
          854.0,
          853.0,
          854.0,
          852.0,
          853.0,
          851.0,
          852.0,
          852.0,
          852.0,
          850.0,
          851.0,
          846.0,
          852.0,
          851.0,
          852.0,
          850.0,
          848.0,
          850.0,
          850.0,
          851.0,
          852.0,
          852.0,
          853.0,
          851.0,
          851.0,
          851.0,
          850.0,
          852.0,
          856.0,
          853.0,
          853.0,
          853.0,
          853.0,
          852.0,
          852.0,
          851.0,
          851.0,
          850.0,
          851.0,
          853.0,
          856.0,
          853.0,
          854.0,
          853.0,
          852.0,
          850.0,
          854.0,
          853.0,
          853.0,
          853.0,
          853.0,
          853.0,
          854.0
        ],
        "WindowWidth": [
          1817.0,
          1816.0,
          1816.0,
          1814.0,
          1814.0,
          1818.0,
          1814.0,
          1817.0,
          1812.0,
          1819.0,
          1816.0,
          1814.0,
          1814.0,
          1810.0,
          1817.0,
          1822.0,
          1814.0,
          1812.0,
          1818.0,
          1820.0,
          1814.0,
          1827.0,
          1820.0,
          1816.0,
          1813.0,
          1828.0,
          1810.0,
          1807.0,
          1811.0,
          1807.0,
          1813.0,
          1818.0,
          1819.0,
          1807.0,
          1812.0,
          1817.0,
          1815.0,
          1806.0,
          1811.0,
          1812.0,
          1815.0,
          1806.0,
          1804.0,
          1810.0,
          1800.0,
          1806.0,
          1804.0,
          1808.0,
          1808.0,
          1803.0,
          1807.0,
          1813.0,
          1813.0,
          1816.0,
          1816.0,
          1817.0,
          1814.0,
          1825.0,
          1819.0,
          1815.0,
          1818.0,
          1817.0,
          1809.0,
          1816.0,
          1816.0,
          1813.0,
          1817.0,
          1807.0,
          1814.0,
          1817.0,
          1809.0,
          1807.0,
          1815.0,
          1822.0,
          1818.0,
          1820.0,
          1816.0,
          1820.0,
          1814.0,
          1817.0,
          1816.0,
          1815.0,
          1813.0,
          1814.0,
          1801.0,
          1815.0,
          1813.0,
          1818.0,
          1812.0,
          1806.0,
          1809.0,
          1812.0,
          1813.0,
          1813.0,
          1817.0,
          1820.0,
          1810.0,
          1812.0,
          1814.0,
          1809.0,
          1815.0,
          1825.0,
          1820.0,
          1819.0,
          1819.0,
          1819.0,
          1817.0,
          1814.0,
          1811.0,
          1814.0,
          1809.0,
          1812.0,
          1817.0,
          1829.0,
          1817.0,
          1822.0,
          1818.0,
          1815.0,
          1811.0,
          1821.0,
          1817.0,
          1819.0,
          1818.0,
          1816.0,
          1820.0,
          1822.0
        ]
      },
      "slices": {}
    }
  },
  "dummy_trs": 0,
  "dvars_nstd": 41.023835281919986,
  "dvars_std": 1.34536138232,
  "dvars_vstd": 1.0481492227200004,
  "efc": 0.5834057814452084,
  "fber": 1801.61474609375,
  "fd_mean": 0.6158490184650747,
  "fd_num": 119,
  "fd_perc": 94.44444444444444,
  "fwhm_avg": 1.6451012829606444,
  "fwhm_x": 1.5254566666666667,
  "fwhm_y": 1.8438533333333333,
  "fwhm_z": 1.5659938488819325,
  "gcor": 0.0262017,
  "gsr_x": -0.006250215694308281,
  "gsr_y": 0.03984515368938446,
  "provenance": {
    "md5sum": "35d22668fb232bebf813ac47ba506c77",
    "settings": {
      "fd_thres": 0.2,
      "testing": false
    },
    "software": "mriqc",
    "version": "22.0.1",
    "webapi_port": null,
    "webapi_url": "https://mriqc.nimh.nih.gov/api/v1"
  },
  "size_t": 126,
  "size_x": 64,
  "size_y": 64,
  "size_z": 34,
  "snr": 7.489711286962019,
  "spacing_tr": 2.3399999141693115,
  "spacing_x": 3.0,
  "spacing_y": 3.0,
  "spacing_z": 3.3000001907348633,
  "summary_bg_k": 48.33041189351126,
  "summary_bg_mad": 8.825013474708518,
  "summary_bg_mean": 34.88477325439453,
  "summary_bg_median": 23.02381134033203,
  "summary_bg_n": 69536.0,
  "summary_bg_p05": 13.492064476013184,
  "summary_bg_p95": 87.14286231994629,
  "summary_bg_stdv": 46.571929931640625,
  "summary_fg_k": 2.1205829775697778,
  "summary_fg_mad": 130.81023625424888,
  "summary_fg_mean": 1001.908447265625,
  "summary_fg_median": 1000.5000610351562,
  "summary_fg_n": 36901.0,
  "summary_fg_p05": 802.4285888671875,
  "summary_fg_p95": 1207.4603271484375,
  "summary_fg_stdv": 133.58145141601562,
  "tsnr": 53.2051064906409
}