{
  "aor": 0.015548000000000001,
  "aqi": 0.017419238230769234,
  "bids_meta": {
    "AcquisitionMatrixPE": 64,
    "AcquisitionNumber": 1,
    "AcquisitionTime": "12:05:42.152500",
    "BandwidthPerPixelPhaseEncode": 24.038,
    "BaseResolution": 64,
    "BodyPartExamined": "HEAD",
    "ConsistencyInfo": "N4_VD13A_LATEST_20120616",
    "ConversionSoftware": "dcm2niix",
    "ConversionSoftwareVersion": "v1.0.20181125  GCC6.3.0",
    "DerivedVendorReportedEchoSpacing": 0.000650012,
    "DeviceSerialNumber": "45250",
    "DwellTime": 4.6e-06,
    "EchoTime": 0.033,
    "EchoTrainLength": 64,
    "EffectiveEchoSpacing": 0.000650012,
    "FlipAngle": 90,
    "ImageOrientationPatientDICOM": [
      0.995007,
      0.0706071,
      -0.070542,
      -0.092304,
      0.919844,
      -0.381271
    ],
    "ImageType": [
      "ORIGINAL",
      "PRIMARY",
      "M",
      "ND",
      "NORM",
      "MOSAIC"
    ],
    "ImagingFrequency": 123.214,
    "InPlanePhaseEncodingDirectionDICOM": "COL",
    "InstitutionAddress": "Kopernikusstr._26_Graz_Graz_AT_8010",
    "InstitutionName": "KFU",
    "InstitutionalDepartmentName": "Department",
    "MRAcquisitionType": "2D",
    "MagneticFieldStrength": 3,
    "Manufacturer": "Siemens",
    "ManufacturersModelName": "Skyra",
    "Modality": "MR",
    "PartialFourier": 1,
    "PatientPosition": "HFS",
    "PercentPhaseFOV": 100,
    "PhaseEncodingDirection": "j-",
    "PhaseEncodingSteps": 64,
    "PhaseResolution": 1,
    "PixelBandwidth": 1700,
    "ProcedureStepDescription": "KFU_Entw-Psy",
    "ProtocolName": "fMRI_2",
    "PulseSequenceDetails": "%SiemensSeq%_ep2d_pace",
    "ReceiveCoilActiveElements": "HE1-4",
    "ReceiveCoilName": "HeadNeck_20",
    "ReconMatrixPE": 64,
    "RepetitionTime": 2.34,
    "SAR": 0.169118,
    "ScanOptions": "FS",
    "ScanningSequence": "EP",
    "SequenceName": "_epfid2d1_64",
    "SequenceVariant": "SK",
    "SeriesDescription": "fMRI_2",
    "SeriesNumber": 5,
    "ShimSetting": [
      -1564,
      -3576,
      -4421,
      390,
      554,
      -89,
      -66,
      -282
    ],
    "SliceThickness": 3,
    "SliceTiming": [
      2.25,
      2.1825,
      2.115,
      2.045,
      1.9775,
      1.91,
      1.84,
      1.7725,
      1.705,
      1.6375,
      1.5675,
      1.5,
      1.4325,
      1.3625,
      1.295,
      1.2275,
      1.16,
      1.09,
      1.0225,
      0.955,
      0.885,
      0.8175,
      0.75,
      0.6825,
      0.6125,
      0.545,
      0.4775,
      0.4075,
      0.34,
      0.2725,
      0.2025,
      0.135,
      0.0675,
      0
    ],
    "SoftwareVersions": "syngo_MR_D13",
    "SpacingBetweenSlices": 3.3,
    "StationName": "FBMTMR1",
    "TaskName": "read",
    "TotalReadoutTime": 0.0409508,
    "TxRefAmp": 400.966,
    "dataset": "ds003126",
    "dcmmeta_affine": [
      [
        -2.985020399093628,
        -0.27691197395324707,
        -0.12529180943965912,
        108.47748565673828
      ],
      [
        -0.21182121336460114,
        2.759531259536743,
        -1.273398756980896,
        -99.54743957519531
      ],
      [
        -0.2116260677576065,
        1.143812656402588,
        3.0418343544006348,
        -47.23088836669922
      ],
      [
        0.0,
        0.0,
        0.0,
        1.0
      ]
    ],
    "dcmmeta_reorient_transform": [
      [
        0.0,
        -1.0,
        0.0,
        63.0
      ],
      [
        1.0,
        0.0,
        0.0,
        0.0
      ],
      [
        0.0,
        0.0,
        1.0,
        0.0
      ],
      [
        0.0,
        0.0,
        0.0,
        1.0
      ]
    ],
    "dcmmeta_shape": [
      64,
      64,
      34,
      130
    ],
    "dcmmeta_slice_dim": 2,
    "dcmmeta_version": 0.6,
    "global": {
      "const": {
        "AcquisitionMatrix": [
          64,
          0,
          0,
          64
        ],
        "AngioFlag": "N",
        "BitsAllocated": 16,
        "BitsStored": 12,
        "BodyPartExamined": "HEAD",
        "Columns": 384,
        "EchoNumbers": 1,
        "EchoTime": 33.0,
        "EchoTrainLength": 64,
        "FlipAngle": 90.0,
        "HighBit": 11,
        "ImageOrientationPatient": [
          0.99500676601225,
          0.07060707231039,
          -0.0705420224377,
          -0.0923039879732,
          0.91984372372241,
          -0.3812708980931
        ],
        "ImagePositionPatient": [
          -524.32936780415,
          -549.71940987292,
          241.69951299295
        ],
        "ImageType": [
          "ORIGINAL",
          "PRIMARY",
          "M",
          "ND",
          "NORM",
          "MOSAIC"
        ],
        "ImagedNucleus": "1H",
        "ImagingFrequency": 123.214326,
        "InPlanePhaseEncodingDirection": "COL",
        "MRAcquisitionType": "2D",
        "MagneticFieldStrength": 3.0,
        "Manufacturer": "SIEMENS",
        "ManufacturerModelName": "Skyra",
        "Modality": "MR",
        "NumberOfAverages": 1.0,
        "NumberOfPhaseEncodingSteps": 64,
        "PercentPhaseFieldOfView": 100.0,
        "PercentSampling": 100.0,
        "PerformedProcedureStepStartTime": "115719.235000",
        "PhotometricInterpretation": "MONOCHROME2",
        "PixelBandwidth": 1700.0,
        "PixelRepresentation": 0,
        "PixelSpacing": [
          3.0,
          3.0
        ],
        "ProtocolName": "fMRI_2",
        "RepetitionTime": 2340.0,
        "Rows": 384,
        "SAR": 0.16911805566381,
        "SamplesPerPixel": 1,
        "ScanOptions": "FS",
        "ScanningSequence": "EP",
        "SequenceName": "*epfid2d1_64",
        "SequenceVariant": "SK",
        "SeriesDescription": "fMRI_2",
        "SeriesNumber": 5,
        "SeriesTime": "120632.306000",
        "SliceLocation": -9.2413032012477,
        "SliceThickness": 3.0,
        "SmallestImagePixelValue": 0,
        "SoftwareVersions": "syngo MR D13",
        "SpacingBetweenSlices": 3.2999999216507,
        "SpecificCharacterSet": "ISO_IR 100",
        "StudyID": "1",
        "StudyTime": "115719.174000",
        "TransmitCoilName": "Body",
        "VariableFlipAngleFlag": "N",
        "WindowCenterWidthExplanation": "Algo1",
        "dBdt": 0.0
      },
      "slices": {}
    },
    "modality": "bold",
    "run_id": 2,
    "session_id": "2",
    "subject_id": "047EPKL013034",
    "task_id": "read",
    "time": {
      "samples": {
        "AcquisitionNumber": [
          1,
          2,
          3,
          4,
          5,
          6,
          7,
          8,
          9,
          10,
          11,
          12,
          13,
          14,
          15,
          16,
          17,
          18,
          19,
          20,
          21,
          22,
          23,
          24,
          25,
          26,
          27,
          28,
          29,
          30,
          31,
          32,
          33,
          34,
          35,
          36,
          37,
          38,
          39,
          40,
          41,
          42,
          43,
          44,
          45,
          46,
          47,
          48,
          49,
          50,
          51,
          52,
          53,
          54,
          55,
          56,
          57,
          58,
          59,
          60,
          61,
          62,
          63,
          64,
          65,
          66,
          67,
          68,
          69,
          70,
          71,
          72,
          73,
          74,
          75,
          76,
          77,
          78,
          79,
          80,
          81,
          82,
          83,
          84,
          85,
          86,
          87,
          88,
          89,
          90,
          91,
          92,
          93,
          94,
          95,
          96,
          97,
          98,
          99,
          100,
          101,
          102,
          103,
          104,
          105,
          106,
          107,
          108,
          109,
          110,
          111,
          112,
          113,
          114,
          115,
          116,
          117,
          118,
          119,
          120,
          121,
          122,
          123,
          124,
          125,
          126,
          127,
          128,
          129,
          130
        ],
        "AcquisitionTime": [
          "120542.152500",
          "120544.492500",
          "120546.832500",
          "120549.172500",
          "120551.512500",
          "120553.852500",
          "120556.192500",
          "120558.532500",
          "120600.872500",
          "120603.212500",
          "120605.552500",
          "120607.892500",
          "120610.232500",
          "120612.572500",
          "120614.912500",
          "120617.252500",
          "120619.592500",
          "120621.932500",
          "120624.272500",
          "120626.612500",
          "120628.952500",
          "120631.292500",
          "120633.632500",
          "120635.972500",
          "120638.312500",
          "120640.652500",
          "120642.992500",
          "120645.332500",
          "120647.672500",
          "120650.012500",
          "120652.352500",
          "120654.692500",
          "120657.032500",
          "120659.372500",
          "120701.712500",
          "120704.052500",
          "120706.392500",
          "120708.732500",
          "120711.072500",
          "120713.412500",
          "120715.752500",
          "120718.092500",
          "120720.432500",
          "120722.772500",
          "120725.112500",
          "120727.452500",
          "120729.792500",
          "120732.132500",
          "120734.472500",
          "120736.812500",
          "120739.152500",
          "120741.492500",
          "120743.832500",
          "120746.172500",
          "120748.512500",
          "120750.852500",
          "120753.192500",
          "120755.532500",
          "120757.872500",
          "120800.212500",
          "120802.552500",
          "120804.892500",
          "120807.232500",
          "120809.572500",
          "120811.912500",
          "120814.252500",
          "120816.592500",
          "120818.932500",
          "120821.272500",
          "120823.612500",
          "120825.952500",
          "120828.292500",
          "120830.632500",
          "120832.972500",
          "120835.312500",
          "120837.652500",
          "120839.992500",
          "120842.332500",
          "120844.672500",
          "120847.012500",
          "120849.352500",
          "120851.692500",
          "120854.032500",
          "120856.372500",
          "120858.712500",
          "120901.052500",
          "120903.392500",
          "120905.732500",
          "120908.072500",
          "120910.412500",
          "120912.752500",
          "120915.092500",
          "120917.432500",
          "120919.772500",
          "120922.112500",
          "120924.452500",
          "120926.792500",
          "120929.132500",
          "120931.472500",
          "120933.812500",
          "120936.152500",
          "120938.492500",
          "120940.832500",
          "120943.172500",
          "120945.512500",
          "120947.852500",
          "120950.192500",
          "120952.532500",
          "120954.872500",
          "120957.212500",
          "120959.552500",
          "121001.892500",
          "121004.232500",
          "121006.572500",
          "121008.912500",
          "121011.252500",
          "121013.592500",
          "121015.932500",
          "121018.272500",
          "121020.612500",
          "121022.952500",
          "121025.292500",
          "121027.632500",
          "121029.972500",
          "121032.312500",
          "121034.652500",
          "121036.992500",
          "121039.332500",
          "121041.672500",
          "121044.012500"
        ],
        "ContentTime": [
          "120632.311000",
          "120632.315000",
          "120632.318000",
          "120632.320000",
          "120632.328000",
          "120632.330000",
          "120632.333000",
          "120632.336000",
          "120632.339000",
          "120632.342000",
          "120632.344000",
          "120632.349000",
          "120632.352000",
          "120632.354000",
          "120632.361000",
          "120632.367000",
          "120632.370000",
          "120632.373000",
          "120632.376000",
          "120632.379000",
          "120632.382000",
          "120632.385000",
          "120732.303000",
          "120732.307000",
          "120732.309000",
          "120732.317000",
          "120732.320000",
          "120732.325000",
          "120732.328000",
          "120732.330000",
          "120732.333000",
          "120732.336000",
          "120732.338000",
          "120732.341000",
          "120732.344000",
          "120732.347000",
          "120732.350000",
          "120732.353000",
          "120732.355000",
          "120732.358000",
          "120732.361000",
          "120732.363000",
          "120732.366000",
          "120732.369000",
          "120732.372000",
          "120732.374000",
          "120732.377000",
          "120832.305000",
          "120832.308000",
          "120832.310000",
          "120832.313000",
          "120832.324000",
          "120832.327000",
          "120832.330000",
          "120832.332000",
          "120832.335000",
          "120832.338000",
          "120832.341000",
          "120832.343000",
          "120832.346000",
          "120832.355000",
          "120832.357000",
          "120832.360000",
          "120832.363000",
          "120832.366000",
          "120832.368000",
          "120832.371000",
          "120832.374000",
          "120832.377000",
          "120832.379000",
          "120832.382000",
          "120832.385000",
          "120832.388000",
          "120932.303000",
          "120932.307000",
          "120932.309000",
          "120932.312000",
          "120932.315000",
          "120932.317000",
          "120932.320000",
          "120932.322000",
          "120932.325000",
          "120932.328000",
          "120932.331000",
          "120932.333000",
          "120932.336000",
          "120932.339000",
          "120932.341000",
          "120932.344000",
          "120932.347000",
          "120932.350000",
          "120932.352000",
          "120932.355000",
          "120932.358000",
          "120932.360000",
          "120932.363000",
          "120932.366000",
          "120932.369000",
          "120932.371000",
          "121032.303000",
          "121032.306000",
          "121032.309000",
          "121032.317000",
          "121032.319000",
          "121032.322000",
          "121032.325000",
          "121032.328000",
          "121032.330000",
          "121032.333000",
          "121032.335000",
          "121032.338000",
          "121032.341000",
          "121032.343000",
          "121032.346000",
          "121032.349000",
          "121032.352000",
          "121032.355000",
          "121032.357000",
          "121032.361000",
          "121032.364000",
          "121032.366000",
          "121032.369000",
          "121032.372000",
          "121032.374000",
          "121044.500000",
          "121044.504000",
          "121044.507000",
          "121044.509000",
          "121044.512000",
          "121044.515000"
        ],
        "InstanceCreationTime": [
          "120632.311000",
          "120632.315000",
          "120632.318000",
          "120632.320000",
          "120632.328000",
          "120632.330000",
          "120632.333000",
          "120632.336000",
          "120632.339000",
          "120632.342000",
          "120632.344000",
          "120632.349000",
          "120632.352000",
          "120632.354000",
          "120632.361000",
          "120632.367000",
          "120632.370000",
          "120632.373000",
          "120632.376000",
          "120632.379000",
          "120632.382000",
          "120632.385000",
          "120732.303000",
          "120732.307000",
          "120732.309000",
          "120732.317000",
          "120732.320000",
          "120732.325000",
          "120732.328000",
          "120732.330000",
          "120732.333000",
          "120732.336000",
          "120732.338000",
          "120732.341000",
          "120732.344000",
          "120732.347000",
          "120732.350000",
          "120732.353000",
          "120732.355000",
          "120732.358000",
          "120732.361000",
          "120732.363000",
          "120732.366000",
          "120732.369000",
          "120732.372000",
          "120732.374000",
          "120732.377000",
          "120832.305000",
          "120832.308000",
          "120832.310000",
          "120832.313000",
          "120832.324000",
          "120832.327000",
          "120832.330000",
          "120832.332000",
          "120832.335000",
          "120832.338000",
          "120832.341000",
          "120832.343000",
          "120832.346000",
          "120832.355000",
          "120832.357000",
          "120832.360000",
          "120832.363000",
          "120832.366000",
          "120832.368000",
          "120832.371000",
          "120832.374000",
          "120832.377000",
          "120832.379000",
          "120832.382000",
          "120832.385000",
          "120832.388000",
          "120932.303000",
          "120932.307000",
          "120932.309000",
          "120932.312000",
          "120932.315000",
          "120932.317000",
          "120932.320000",
          "120932.322000",
          "120932.325000",
          "120932.328000",
          "120932.331000",
          "120932.333000",
          "120932.336000",
          "120932.339000",
          "120932.341000",
          "120932.344000",
          "120932.347000",
          "120932.350000",
          "120932.352000",
          "120932.355000",
          "120932.358000",
          "120932.360000",
          "120932.363000",
          "120932.366000",
          "120932.369000",
          "120932.371000",
          "121032.303000",
          "121032.306000",
          "121032.309000",
          "121032.317000",
          "121032.319000",
          "121032.322000",
          "121032.325000",
          "121032.328000",
          "121032.330000",
          "121032.333000",
          "121032.335000",
          "121032.338000",
          "121032.341000",
          "121032.343000",
          "121032.346000",
          "121032.349000",
          "121032.352000",
          "121032.355000",
          "121032.357000",
          "121032.361000",
          "121032.364000",
          "121032.366000",
          "121032.369000",
          "121032.372000",
          "121032.374000",
          "121044.500000",
          "121044.504000",
          "121044.507000",
          "121044.509000",
          "121044.512000",
          "121044.515000"
        ],
        "InstanceNumber": [
          1,
          2,
          3,
          4,
          5,
          6,
          7,
          8,
          9,
          10,
          11,
          12,
          13,
          14,
          15,
          16,
          17,
          18,
          19,
          20,
          21,
          22,
          23,
          24,
          25,
          26,
          27,
          28,
          29,
          30,
          31,
          32,
          33,
          34,
          35,
          36,
          37,
          38,
          39,
          40,
          41,
          42,
          43,
          44,
          45,
          46,
          47,
          48,
          49,
          50,
          51,
          52,
          53,
          54,
          55,
          56,
          57,
          58,
          59,
          60,
          61,
          62,
          63,
          64,
          65,
          66,
          67,
          68,
          69,
          70,
          71,
          72,
          73,
          74,
          75,
          76,
          77,
          78,
          79,
          80,
          81,
          82,
          83,
          84,
          85,
          86,
          87,
          88,
          89,
          90,
          91,
          92,
          93,
          94,
          95,
          96,
          97,
          98,
          99,
          100,
          101,
          102,
          103,
          104,
          105,
          106,
          107,
          108,
          109,
          110,
          111,
          112,
          113,
          114,
          115,
          116,
          117,
          118,
          119,
          120,
          121,
          122,
          123,
          124,
          125,
          126,
          127,
          128,
          129,
          130
        ],
        "LargestImagePixelValue": [
          2051,
          2197,
          2434,
          2173,
          1982,
          1948,
          2421,
          2486,
          1910,
          1990,
          2097,
          2299,
          2383,
          2269,
          1960,
          2044,
          1936,
          2129,
          1946,
          2418,
          2243,
          2214,
          1909,
          2298,
          1971,
          1959,
          2614,
          1897,
          1875,
          2267,
          1868,
          2518,
          1878,
          1921,
          1936,
          2489,
          2165,
          2019,
          2203,
          2014,
          2315,
          1920,
          2442,
          2087,
          1903,
          1928,
          2072,
          2229,
          1928,
          1993,
          2316,
          1920,
          1860,
          2441,
          1869,
          1897,
          2147,
          1929,
          2291,
          2837,
          1992,
          1941,
          2571,
          1910,
          1806,
          2039,
          2293,
          2367,
          2190,
          2161,
          2408,
          1942,
          2189,
          1965,
          1906,
          2427,
          1974,
          1917,
          2141,
          2090,
          2158,
          2437,
          1897,
          1877,
          2002,
          2318,
          2186,
          2530,
          1998,
          1868,
          1899,
          1950,
          2459,
          2469,
          2413,
          1959,
          1892,
          2306,
          2692,
          2606,
          2276,
          2012,
          1989,
          2496,
          1966,
          2543,
          2145,
          2833,
          1975,
          1991,
          2346,
          1939,
          2271,
          2341,
          2159,
          2272,
          2466,
          1964,
          2266,
          2421,
          1959,
          1952,
          2236,
          2004,
          2414,
          2500,
          2292,
          1909,
          1922,
          2423
        ],
        "WindowCenter": [
          809.0,
          808.0,
          809.0,
          808.0,
          808.0,
          810.0,
          807.0,
          807.0,
          806.0,
          808.0,
          811.0,
          809.0,
          806.0,
          805.0,
          806.0,
          807.0,
          807.0,
          808.0,
          808.0,
          810.0,
          810.0,
          809.0,
          808.0,
          809.0,
          808.0,
          810.0,
          810.0,
          809.0,
          808.0,
          809.0,
          811.0,
          808.0,
          808.0,
          810.0,
          809.0,
          813.0,
          809.0,
          808.0,
          808.0,
          809.0,
          808.0,
          807.0,
          809.0,
          809.0,
          809.0,
          809.0,
          810.0,
          810.0,
          808.0,
          809.0,
          810.0,
          811.0,
          811.0,
          812.0,
          811.0,
          811.0,
          809.0,
          810.0,
          809.0,
          809.0,
          809.0,
          809.0,
          810.0,
          813.0,
          809.0,
          807.0,
          808.0,
          810.0,
          805.0,
          810.0,
          808.0,
          811.0,
          809.0,
          811.0,
          807.0,
          810.0,
          809.0,
          810.0,
          811.0,
          811.0,
          809.0,
          811.0,
          809.0,
          811.0,
          810.0,
          811.0,
          811.0,
          810.0,
          809.0,
          811.0,
          812.0,
          814.0,
          814.0,
          812.0,
          809.0,
          809.0,
          811.0,
          813.0,
          812.0,
          811.0,
          808.0,
          811.0,
          809.0,
          813.0,
          810.0,
          813.0,
          813.0,
          814.0,
          809.0,
          812.0,
          812.0,
          811.0,
          811.0,
          812.0,
          812.0,
          814.0,
          813.0,
          815.0,
          812.0,
          813.0,
          809.0,
          814.0,
          813.0,
          814.0,
          814.0,
          812.0,
          811.0,
          811.0,
          813.0,
          815.0
        ],
        "WindowWidth": [
          1735.0,
          1731.0,
          1733.0,
          1730.0,
          1730.0,
          1733.0,
          1729.0,
          1727.0,
          1723.0,
          1731.0,
          1738.0,
          1734.0,
          1725.0,
          1723.0,
          1722.0,
          1727.0,
          1725.0,
          1729.0,
          1730.0,
          1737.0,
          1734.0,
          1733.0,
          1730.0,
          1734.0,
          1729.0,
          1735.0,
          1736.0,
          1730.0,
          1729.0,
          1734.0,
          1737.0,
          1732.0,
          1728.0,
          1732.0,
          1730.0,
          1745.0,
          1733.0,
          1730.0,
          1728.0,
          1731.0,
          1732.0,
          1727.0,
          1733.0,
          1733.0,
          1732.0,
          1734.0,
          1734.0,
          1734.0,
          1729.0,
          1732.0,
          1737.0,
          1737.0,
          1736.0,
          1740.0,
          1734.0,
          1737.0,
          1734.0,
          1735.0,
          1732.0,
          1734.0,
          1731.0,
          1734.0,
          1736.0,
          1737.0,
          1732.0,
          1730.0,
          1733.0,
          1733.0,
          1721.0,
          1734.0,
          1732.0,
          1734.0,
          1732.0,
          1738.0,
          1728.0,
          1736.0,
          1730.0,
          1733.0,
          1738.0,
          1738.0,
          1731.0,
          1737.0,
          1731.0,
          1736.0,
          1734.0,
          1738.0,
          1737.0,
          1736.0,
          1731.0,
          1737.0,
          1739.0,
          1743.0,
          1745.0,
          1740.0,
          1733.0,
          1732.0,
          1738.0,
          1743.0,
          1745.0,
          1739.0,
          1731.0,
          1739.0,
          1734.0,
          1744.0,
          1735.0,
          1747.0,
          1744.0,
          1746.0,
          1732.0,
          1740.0,
          1741.0,
          1739.0,
          1740.0,
          1743.0,
          1741.0,
          1747.0,
          1746.0,
          1749.0,
          1741.0,
          1742.0,
          1732.0,
          1747.0,
          1744.0,
          1744.0,
          1747.0,
          1743.0,
          1740.0,
          1738.0,
          1744.0,
          1749.0
        ]
      },
      "slices": {}
    }
  },
  "dummy_trs": 0,
  "dvars_nstd": 44.872483793333345,
  "dvars_std": 1.4769347056589155,
  "dvars_vstd": 1.160866890775194,
  "efc": 0.5627968427024308,
  "fber": 1615.1954345703125,
  "fd_mean": 0.7220080877064905,
  "fd_num": 104,
  "fd_perc": 80.0,
  "fwhm_avg": 1.877787180170282,
  "fwhm_x": 1.8032933333333334,
  "fwhm_y": 2.07505,
  "fwhm_z": 1.7550182071775118,
  "gcor": 0.0350455,
  "gsr_x": -0.004752832930535078,
  "gsr_y": 0.03835628926753998,
  "provenance": {
    "md5sum": "6acc59320055205d708b904994c9d8ca",
    "settings": {
      "fd_thres": 0.2,
      "testing": false
    },
    "software": "mriqc",
    "version": "22.0.1",
    "webapi_port": null,
    "webapi_url": "https://mriqc.nimh.nih.gov/api/v1"
  },
  "size_t": 130,
  "size_x": 64,
  "size_y": 64,
  "size_z": 34,
  "snr": 5.704347006569528,
  "spacing_tr": 2.3399999141693115,
  "spacing_x": 3.0,
  "spacing_y": 3.0,
  "spacing_z": 3.299999952316284,
  "summary_bg_k": 60.26465363647566,
  "summary_bg_mad": 10.366809439664292,
  "summary_bg_mean": 35.9140625,
  "summary_bg_median": 22.869230270385742,
  "summary_bg_n": 73662.0,
  "summary_bg_p05": 13.161538124084473,
  "summary_bg_p95": 96.48423423767088,
  "summary_bg_stdv": 49.20331954956055,
  "summary_fg_k": 2.377186341700507,
  "summary_fg_mad": 137.65387886784393,
  "summary_fg_mean": 955.1229248046875,
  "summary_fg_median": 940.7884521484375,
  "summary_fg_n": 33658.0,
  "summary_fg_p05": 739.3645874023438,
  "summary_fg_p95": 1280.0199951171874,
  "summary_fg_stdv": 164.92237854003906,
  "tsnr": 44.22418509027921
}