{
  "aor": 0.011181269841269841,
  "aqi": 0.030321564206349204,
  "bids_meta": {
    "AcquisitionMatrixPE": 64,
    "AcquisitionNumber": 1,
    "AcquisitionTime": "10:41:46.395000",
    "BandwidthPerPixelPhaseEncode": 24.038,
    "BaseResolution": 64,
    "BodyPartExamined": "HEAD",
    "ConsistencyInfo": "N4_VD13A_LATEST_20120616",
    "ConversionSoftware": "dcm2niix",
    "ConversionSoftwareVersion": "v1.0.20181125  GCC6.3.0",
    "DerivedVendorReportedEchoSpacing": 0.000650012,
    "DeviceSerialNumber": "45250",
    "DwellTime": 4.6e-06,
    "EchoTime": 0.033,
    "EchoTrainLength": 64,
    "EffectiveEchoSpacing": 0.000650012,
    "FlipAngle": 90,
    "ImageOrientationPatientDICOM": [
      0.998047,
      -0.00708446,
      -0.0620604,
      4.4484e-09,
      0.993547,
      -0.113418
    ],
    "ImageType": [
      "ORIGINAL",
      "PRIMARY",
      "M",
      "ND",
      "NORM",
      "MOSAIC"
    ],
    "ImagingFrequency": 123.22,
    "InPlanePhaseEncodingDirectionDICOM": "COL",
    "InstitutionAddress": "Kopernikusstr._26_Graz_Graz_AT_8010",
    "InstitutionName": "KFU",
    "InstitutionalDepartmentName": "Department",
    "MRAcquisitionType": "2D",
    "MagneticFieldStrength": 3,
    "Manufacturer": "Siemens",
    "ManufacturersModelName": "Skyra",
    "Modality": "MR",
    "PartialFourier": 1,
    "PatientPosition": "HFS",
    "PercentPhaseFOV": 100,
    "PhaseEncodingDirection": "j-",
    "PhaseEncodingSteps": 64,
    "PhaseResolution": 1,
    "PixelBandwidth": 1700,
    "ProcedureStepDescription": "KFU_Entw-Psy",
    "ProtocolName": "fMRI_2",
    "PulseSequenceDetails": "%SiemensSeq%_ep2d_pace",
    "ReceiveCoilActiveElements": "HE1-4",
    "ReceiveCoilName": "HeadNeck_20",
    "ReconMatrixPE": 64,
    "RepetitionTime": 2.34,
    "SAR": 0.151816,
    "ScanOptions": "FS",
    "ScanningSequence": "EP",
    "SequenceName": "_epfid2d1_64",
    "SequenceVariant": "SK",
    "SeriesDescription": "fMRI_2",
    "SeriesNumber": 5,
    "ShimSetting": [
      -1691,
      -3692,
      -4308,
      389,
      676,
      15,
      -48,
      -390
    ],
    "SliceThickness": 3,
    "SliceTiming": [
      2.2525,
      2.1825,
      2.115,
      2.0475,
      1.98,
      1.91,
      1.8425,
      1.775,
      1.705,
      1.6375,
      1.57,
      1.5025,
      1.4325,
      1.365,
      1.2975,
      1.2275,
      1.16,
      1.0925,
      1.0225,
      0.955,
      0.8875,
      0.82,
      0.75,
      0.6825,
      0.615,
      0.545,
      0.4775,
      0.41,
      0.3425,
      0.2725,
      0.205,
      0.1375,
      0.0675,
      0
    ],
    "SoftwareVersions": "syngo_MR_D13",
    "SpacingBetweenSlices": 3.3,
    "StationName": "FBMTMR1",
    "TaskName": "read",
    "TotalReadoutTime": 0.0409508,
    "TxRefAmp": 340.41,
    "dataset": "ds003126",
    "dcmmeta_affine": [
      [
        -2.9941418170928955,
        1.334520938200967e-08,
        -0.20612943172454834,
        96.52567291259766
      ],
      [
        0.021253371611237526,
        2.980642318725586,
        -0.3735470175743103,
        -108.55193328857422
      ],
      [
        -0.1861812323331833,
        0.3402526378631592,
        3.272304058074951,
        -16.200851440429688
      ],
      [
        0.0,
        0.0,
        0.0,
        1.0
      ]
    ],
    "dcmmeta_reorient_transform": [
      [
        0.0,
        -1.0,
        0.0,
        63.0
      ],
      [
        1.0,
        0.0,
        0.0,
        0.0
      ],
      [
        0.0,
        0.0,
        1.0,
        0.0
      ],
      [
        0.0,
        0.0,
        0.0,
        1.0
      ]
    ],
    "dcmmeta_shape": [
      64,
      64,
      34,
      126
    ],
    "dcmmeta_slice_dim": 2,
    "dcmmeta_version": 0.6,
    "global": {
      "const": {
        "AcquisitionMatrix": [
          64,
          0,
          0,
          64
        ],
        "AngioFlag": "N",
        "BitsAllocated": 16,
        "BitsStored": 12,
        "BodyPartExamined": "HEAD",
        "Columns": 384,
        "EchoNumbers": 1,
        "EchoTime": 33.0,
        "EchoTrainLength": 64,
        "FlipAngle": 90.0,
        "HighBit": 11,
        "ImageOrientationPatient": [
          0.9980472512945,
          -0.0070844568987,
          -0.0620604113259,
          4.448403e-09,
          0.99354741250735,
          -0.1134175431755
        ],
        "ImagePositionPatient": [
          -575.58835592128,
          -552.73074623183,
          89.464482929864
        ],
        "ImageType": [
          "ORIGINAL",
          "PRIMARY",
          "M",
          "ND",
          "NORM",
          "MOSAIC"
        ],
        "ImagedNucleus": "1H",
        "ImagingFrequency": 123.219992,
        "InPlanePhaseEncodingDirection": "COL",
        "MRAcquisitionType": "2D",
        "MagneticFieldStrength": 3.0,
        "Manufacturer": "SIEMENS",
        "ManufacturerModelName": "Skyra",
        "Modality": "MR",
        "NumberOfAverages": 1.0,
        "NumberOfPhaseEncodingSteps": 64,
        "PercentPhaseFieldOfView": 100.0,
        "PercentSampling": 100.0,
        "PerformedProcedureStepStartTime": "102302.531000",
        "PhotometricInterpretation": "MONOCHROME2",
        "PixelBandwidth": 1700.0,
        "PixelRepresentation": 0,
        "PixelSpacing": [
          3.0,
          3.0
        ],
        "ProtocolName": "fMRI_2",
        "RepetitionTime": 2340.0,
        "Rows": 384,
        "SAR": 0.15181616080594,
        "SamplesPerPixel": 1,
        "ScanOptions": "FS",
        "ScanningSequence": "EP",
        "SequenceName": "*epfid2d1_64",
        "SequenceVariant": "SK",
        "SeriesDescription": "fMRI_2",
        "SeriesNumber": 5,
        "SeriesTime": "104250.817000",
        "SliceLocation": -9.8065572474021,
        "SliceThickness": 3.0,
        "SmallestImagePixelValue": 0,
        "SoftwareVersions": "syngo MR D13",
        "SpacingBetweenSlices": 3.3000000404691,
        "SpecificCharacterSet": "ISO_IR 100",
        "StudyID": "1",
        "StudyTime": "102302.482000",
        "TransmitCoilName": "Body",
        "VariableFlipAngleFlag": "N",
        "WindowCenterWidthExplanation": "Algo1",
        "dBdt": 0.0
      },
      "slices": {}
    },
    "modality": "bold",
    "run_id": 2,
    "session_id": "2",
    "subject_id": "047EPKL014067",
    "task_id": "read",
    "time": {
      "samples": {
        "AcquisitionNumber": [
          1,
          2,
          3,
          4,
          5,
          6,
          7,
          8,
          9,
          10,
          11,
          12,
          13,
          14,
          15,
          16,
          17,
          18,
          19,
          20,
          21,
          22,
          23,
          24,
          25,
          26,
          27,
          28,
          29,
          30,
          31,
          32,
          33,
          34,
          35,
          36,
          37,
          38,
          39,
          40,
          41,
          42,
          43,
          44,
          45,
          46,
          47,
          48,
          49,
          50,
          51,
          52,
          53,
          54,
          55,
          56,
          57,
          58,
          59,
          60,
          61,
          62,
          63,
          64,
          65,
          66,
          67,
          68,
          69,
          70,
          71,
          72,
          73,
          74,
          75,
          76,
          77,
          78,
          79,
          80,
          81,
          82,
          83,
          84,
          85,
          86,
          87,
          88,
          89,
          90,
          91,
          92,
          93,
          94,
          95,
          96,
          97,
          98,
          99,
          100,
          101,
          102,
          103,
          104,
          105,
          106,
          107,
          108,
          109,
          110,
          111,
          112,
          113,
          114,
          115,
          116,
          117,
          118,
          119,
          120,
          121,
          122,
          123,
          124,
          125,
          126
        ],
        "AcquisitionTime": [
          "104146.395000",
          "104148.735000",
          "104151.075000",
          "104153.415000",
          "104155.755000",
          "104158.095000",
          "104200.435000",
          "104202.775000",
          "104205.115000",
          "104207.455000",
          "104209.795000",
          "104212.135000",
          "104214.475000",
          "104216.815000",
          "104219.155000",
          "104221.495000",
          "104223.835000",
          "104226.175000",
          "104228.515000",
          "104230.855000",
          "104233.195000",
          "104235.535000",
          "104237.875000",
          "104240.215000",
          "104242.555000",
          "104244.895000",
          "104247.235000",
          "104249.575000",
          "104251.915000",
          "104254.255000",
          "104256.595000",
          "104258.935000",
          "104301.275000",
          "104303.615000",
          "104305.955000",
          "104308.295000",
          "104310.635000",
          "104312.975000",
          "104315.315000",
          "104317.655000",
          "104319.995000",
          "104322.335000",
          "104324.675000",
          "104327.015000",
          "104329.355000",
          "104331.695000",
          "104334.035000",
          "104336.375000",
          "104338.715000",
          "104341.055000",
          "104343.395000",
          "104345.735000",
          "104348.075000",
          "104350.415000",
          "104352.755000",
          "104355.095000",
          "104357.435000",
          "104359.775000",
          "104402.115000",
          "104404.455000",
          "104406.795000",
          "104409.135000",
          "104411.475000",
          "104413.815000",
          "104416.155000",
          "104418.495000",
          "104420.835000",
          "104423.175000",
          "104425.515000",
          "104427.855000",
          "104430.195000",
          "104432.535000",
          "104434.875000",
          "104437.215000",
          "104439.555000",
          "104441.895000",
          "104444.235000",
          "104446.575000",
          "104448.915000",
          "104451.255000",
          "104453.595000",
          "104455.935000",
          "104458.275000",
          "104500.615000",
          "104502.955000",
          "104505.295000",
          "104507.635000",
          "104509.975000",
          "104512.315000",
          "104514.655000",
          "104516.995000",
          "104519.335000",
          "104521.675000",
          "104524.015000",
          "104526.355000",
          "104528.695000",
          "104531.035000",
          "104533.375000",
          "104535.715000",
          "104538.055000",
          "104540.395000",
          "104542.735000",
          "104545.075000",
          "104547.415000",
          "104549.755000",
          "104552.095000",
          "104554.435000",
          "104556.775000",
          "104559.115000",
          "104601.455000",
          "104603.795000",
          "104606.135000",
          "104608.475000",
          "104610.815000",
          "104613.155000",
          "104615.495000",
          "104617.835000",
          "104620.175000",
          "104622.515000",
          "104624.855000",
          "104627.195000",
          "104629.535000",
          "104631.875000",
          "104634.215000",
          "104636.555000",
          "104638.895000"
        ],
        "ContentTime": [
          "104250.822000",
          "104250.826000",
          "104250.829000",
          "104250.835000",
          "104250.837000",
          "104250.840000",
          "104250.842000",
          "104250.845000",
          "104250.848000",
          "104250.850000",
          "104250.853000",
          "104250.856000",
          "104250.862000",
          "104250.865000",
          "104250.868000",
          "104250.870000",
          "104250.874000",
          "104250.877000",
          "104250.879000",
          "104250.882000",
          "104250.886000",
          "104250.888000",
          "104250.891000",
          "104250.894000",
          "104250.897000",
          "104250.900000",
          "104250.907000",
          "104250.910000",
          "104350.815000",
          "104350.819000",
          "104350.826000",
          "104350.829000",
          "104350.832000",
          "104350.834000",
          "104350.837000",
          "104350.846000",
          "104350.849000",
          "104350.852000",
          "104350.855000",
          "104350.858000",
          "104350.860000",
          "104350.863000",
          "104350.866000",
          "104350.869000",
          "104350.872000",
          "104350.875000",
          "104350.878000",
          "104350.881000",
          "104350.887000",
          "104350.890000",
          "104350.893000",
          "104350.896000",
          "104350.898000",
          "104450.815000",
          "104450.818000",
          "104450.821000",
          "104450.824000",
          "104450.827000",
          "104450.829000",
          "104450.832000",
          "104450.835000",
          "104450.838000",
          "104450.841000",
          "104450.843000",
          "104450.846000",
          "104450.849000",
          "104450.852000",
          "104450.855000",
          "104450.858000",
          "104450.860000",
          "104450.863000",
          "104450.866000",
          "104450.869000",
          "104450.878000",
          "104450.881000",
          "104450.884000",
          "104450.887000",
          "104450.890000",
          "104450.893000",
          "104550.813000",
          "104550.817000",
          "104550.819000",
          "104550.822000",
          "104550.824000",
          "104550.827000",
          "104550.830000",
          "104550.832000",
          "104550.835000",
          "104550.838000",
          "104550.841000",
          "104550.844000",
          "104550.847000",
          "104550.849000",
          "104550.852000",
          "104550.855000",
          "104550.858000",
          "104550.861000",
          "104550.864000",
          "104550.867000",
          "104550.869000",
          "104550.872000",
          "104550.875000",
          "104550.878000",
          "104550.881000",
          "104550.883000",
          "104630.815000",
          "104630.818000",
          "104630.821000",
          "104630.823000",
          "104630.826000",
          "104630.829000",
          "104630.831000",
          "104630.834000",
          "104630.837000",
          "104630.839000",
          "104630.842000",
          "104630.844000",
          "104630.847000",
          "104630.850000",
          "104630.852000",
          "104630.855000",
          "104630.857000",
          "104640.650000",
          "104640.654000",
          "104640.656000",
          "104640.659000"
        ],
        "InstanceCreationTime": [
          "104250.822000",
          "104250.826000",
          "104250.829000",
          "104250.835000",
          "104250.837000",
          "104250.840000",
          "104250.842000",
          "104250.845000",
          "104250.848000",
          "104250.850000",
          "104250.853000",
          "104250.856000",
          "104250.862000",
          "104250.865000",
          "104250.868000",
          "104250.870000",
          "104250.874000",
          "104250.877000",
          "104250.879000",
          "104250.882000",
          "104250.886000",
          "104250.888000",
          "104250.891000",
          "104250.894000",
          "104250.897000",
          "104250.900000",
          "104250.907000",
          "104250.910000",
          "104350.815000",
          "104350.819000",
          "104350.826000",
          "104350.829000",
          "104350.832000",
          "104350.834000",
          "104350.837000",
          "104350.846000",
          "104350.849000",
          "104350.852000",
          "104350.855000",
          "104350.858000",
          "104350.860000",
          "104350.863000",
          "104350.866000",
          "104350.869000",
          "104350.872000",
          "104350.875000",
          "104350.878000",
          "104350.881000",
          "104350.887000",
          "104350.890000",
          "104350.893000",
          "104350.896000",
          "104350.898000",
          "104450.815000",
          "104450.818000",
          "104450.821000",
          "104450.824000",
          "104450.827000",
          "104450.829000",
          "104450.832000",
          "104450.835000",
          "104450.838000",
          "104450.841000",
          "104450.843000",
          "104450.846000",
          "104450.849000",
          "104450.852000",
          "104450.855000",
          "104450.858000",
          "104450.860000",
          "104450.863000",
          "104450.866000",
          "104450.869000",
          "104450.878000",
          "104450.881000",
          "104450.884000",
          "104450.887000",
          "104450.890000",
          "104450.893000",
          "104550.813000",
          "104550.817000",
          "104550.819000",
          "104550.822000",
          "104550.824000",
          "104550.827000",
          "104550.830000",
          "104550.832000",
          "104550.835000",
          "104550.838000",
          "104550.841000",
          "104550.844000",
          "104550.847000",
          "104550.849000",
          "104550.852000",
          "104550.855000",
          "104550.858000",
          "104550.861000",
          "104550.864000",
          "104550.867000",
          "104550.869000",
          "104550.872000",
          "104550.875000",
          "104550.878000",
          "104550.881000",
          "104550.883000",
          "104630.815000",
          "104630.818000",
          "104630.821000",
          "104630.823000",
          "104630.826000",
          "104630.829000",
          "104630.831000",
          "104630.834000",
          "104630.837000",
          "104630.839000",
          "104630.842000",
          "104630.844000",
          "104630.847000",
          "104630.850000",
          "104630.852000",
          "104630.855000",
          "104630.857000",
          "104640.650000",
          "104640.654000",
          "104640.656000",
          "104640.659000"
        ],
        "InstanceNumber": [
          1,
          2,
          3,
          4,
          5,
          6,
          7,
          8,
          9,
          10,
          11,
          12,
          13,
          14,
          15,
          16,
          17,
          18,
          19,
          20,
          21,
          22,
          23,
          24,
          25,
          26,
          27,
          28,
          29,
          30,
          31,
          32,
          33,
          34,
          35,
          36,
          37,
          38,
          39,
          40,
          41,
          42,
          43,
          44,
          45,
          46,
          47,
          48,
          49,
          50,
          51,
          52,
          53,
          54,
          55,
          56,
          57,
          58,
          59,
          60,
          61,
          62,
          63,
          64,
          65,
          66,
          67,
          68,
          69,
          70,
          71,
          72,
          73,
          74,
          75,
          76,
          77,
          78,
          79,
          80,
          81,
          82,
          83,
          84,
          85,
          86,
          87,
          88,
          89,
          90,
          91,
          92,
          93,
          94,
          95,
          96,
          97,
          98,
          99,
          100,
          101,
          102,
          103,
          104,
          105,
          106,
          107,
          108,
          109,
          110,
          111,
          112,
          113,
          114,
          115,
          116,
          117,
          118,
          119,
          120,
          121,
          122,
          123,
          124,
          125,
          126
        ],
        "LargestImagePixelValue": [
          2348,
          3219,
          3210,
          2180,
          2459,
          1916,
          2313,
          2303,
          3079,
          3080,
          2644,
          3046,
          2136,
          2614,
          2151,
          3030,
          2100,
          2975,
          2865,
          2476,
          2472,
          2811,
          3001,
          1994,
          2815,
          1912,
          3086,
          1872,
          1998,
          2164,
          3429,
          2111,
          2871,
          3206,
          3033,
          2139,
          1911,
          1897,
          1855,
          1858,
          2052,
          2901,
          1998,
          2132,
          3170,
          1864,
          2501,
          2628,
          1849,
          3050,
          3172,
          2346,
          3039,
          1955,
          2283,
          1869,
          1810,
          2868,
          2726,
          3250,
          1928,
          2295,
          2928,
          1949,
          1932,
          2596,
          2461,
          2221,
          2915,
          2500,
          2109,
          3264,
          2922,
          2331,
          1998,
          1896,
          3033,
          3047,
          2740,
          3089,
          2863,
          3052,
          1951,
          1880,
          3440,
          1931,
          1806,
          3093,
          2017,
          2944,
          2996,
          2316,
          1828,
          2177,
          3031,
          2996,
          3187,
          1936,
          2049,
          1848,
          2441,
          2080,
          2922,
          2391,
          2499,
          1935,
          1784,
          2543,
          3286,
          1982,
          3124,
          3100,
          2963,
          2226,
          2474,
          2046,
          2381,
          1890,
          1956,
          1820,
          3076,
          2633,
          3014,
          2399,
          3222,
          1951
        ],
        "WindowCenter": [
          855.0,
          855.0,
          852.0,
          848.0,
          851.0,
          851.0,
          853.0,
          853.0,
          856.0,
          853.0,
          851.0,
          853.0,
          849.0,
          851.0,
          850.0,
          852.0,
          850.0,
          853.0,
          853.0,
          852.0,
          853.0,
          851.0,
          851.0,
          851.0,
          852.0,
          854.0,
          853.0,
          851.0,
          853.0,
          856.0,
          855.0,
          852.0,
          851.0,
          849.0,
          843.0,
          840.0,
          836.0,
          843.0,
          843.0,
          845.0,
          850.0,
          854.0,
          850.0,
          852.0,
          854.0,
          851.0,
          851.0,
          852.0,
          852.0,
          852.0,
          850.0,
          850.0,
          848.0,
          847.0,
          849.0,
          852.0,
          852.0,
          849.0,
          851.0,
          852.0,
          842.0,
          847.0,
          848.0,
          846.0,
          851.0,
          853.0,
          853.0,
          854.0,
          852.0,
          855.0,
          851.0,
          853.0,
          851.0,
          854.0,
          850.0,
          857.0,
          854.0,
          854.0,
          853.0,
          854.0,
          848.0,
          849.0,
          848.0,
          849.0,
          857.0,
          851.0,
          851.0,
          853.0,
          855.0,
          853.0,
          850.0,
          849.0,
          851.0,
          852.0,
          852.0,
          854.0,
          849.0,
          846.0,
          848.0,
          850.0,
          851.0,
          853.0,
          852.0,
          849.0,
          850.0,
          850.0,
          853.0,
          854.0,
          854.0,
          855.0,
          851.0,
          855.0,
          848.0,
          846.0,
          840.0,
          845.0,
          847.0,
          852.0,
          852.0,
          859.0,
          856.0,
          853.0,
          851.0,
          851.0,
          852.0,
          851.0
        ],
        "WindowWidth": [
          1806.0,
          1807.0,
          1799.0,
          1788.0,
          1795.0,
          1795.0,
          1801.0,
          1802.0,
          1808.0,
          1802.0,
          1797.0,
          1801.0,
          1789.0,
          1798.0,
          1795.0,
          1798.0,
          1794.0,
          1802.0,
          1803.0,
          1797.0,
          1798.0,
          1798.0,
          1796.0,
          1796.0,
          1797.0,
          1803.0,
          1803.0,
          1795.0,
          1800.0,
          1809.0,
          1809.0,
          1801.0,
          1801.0,
          1788.0,
          1775.0,
          1763.0,
          1755.0,
          1776.0,
          1774.0,
          1781.0,
          1795.0,
          1800.0,
          1789.0,
          1799.0,
          1801.0,
          1794.0,
          1796.0,
          1795.0,
          1796.0,
          1801.0,
          1794.0,
          1792.0,
          1788.0,
          1783.0,
          1789.0,
          1797.0,
          1801.0,
          1789.0,
          1796.0,
          1799.0,
          1768.0,
          1784.0,
          1787.0,
          1782.0,
          1795.0,
          1799.0,
          1799.0,
          1799.0,
          1796.0,
          1806.0,
          1798.0,
          1799.0,
          1796.0,
          1799.0,
          1788.0,
          1812.0,
          1803.0,
          1803.0,
          1800.0,
          1801.0,
          1788.0,
          1793.0,
          1787.0,
          1788.0,
          1812.0,
          1792.0,
          1797.0,
          1802.0,
          1801.0,
          1801.0,
          1793.0,
          1792.0,
          1793.0,
          1802.0,
          1799.0,
          1802.0,
          1790.0,
          1782.0,
          1786.0,
          1795.0,
          1797.0,
          1796.0,
          1796.0,
          1792.0,
          1791.0,
          1792.0,
          1798.0,
          1803.0,
          1806.0,
          1802.0,
          1797.0,
          1803.0,
          1784.0,
          1783.0,
          1768.0,
          1780.0,
          1786.0,
          1795.0,
          1798.0,
          1815.0,
          1810.0,
          1801.0,
          1796.0,
          1795.0,
          1798.0,
          1794.0
        ]
      },
      "slices": {}
    }
  },
  "dummy_trs": 0,
  "dvars_nstd": 50.08831712400001,
  "dvars_std": 1.41749063224,
  "dvars_vstd": 1.1175756726400006,
  "efc": 0.5983356363609816,
  "fber": 1565.7769775390625,
  "fd_mean": 0.716581374239396,
  "fd_num": 107,
  "fd_perc": 84.92063492063492,
  "fwhm_avg": 1.582420714301672,
  "fwhm_x": 1.4861066666666665,
  "fwhm_y": 1.7598766666666668,
  "fwhm_z": 1.5012788095716825,
  "gcor": 0.0621864,
  "gsr_x": 0.0024823143612593412,
  "gsr_y": 0.0469367578625679,
  "provenance": {
    "md5sum": "ae11802e5f547a78913f3fe69f3c549b",
    "settings": {
      "fd_thres": 0.2,
      "testing": false
    },
    "software": "mriqc",
    "version": "22.0.1",
    "webapi_port": null,
    "webapi_url": "https://mriqc.nimh.nih.gov/api/v1"
  },
  "size_t": 126,
  "size_x": 64,
  "size_y": 64,
  "size_z": 34,
  "snr": 7.554816786126079,
  "spacing_tr": 2.3399999141693115,
  "spacing_x": 3.0,
  "spacing_y": 3.0,
  "spacing_z": 3.299999952316284,
  "summary_bg_k": 42.9364771886713,
  "summary_bg_mad": 11.037150163079405,
  "summary_bg_mean": 41.56578063964844,
  "summary_bg_median": 24.04762077331543,
  "summary_bg_n": 68291.0,
  "summary_bg_p05": 13.547619819641113,
  "summary_bg_p95": 114.08731079101562,
  "summary_bg_stdv": 62.685699462890625,
  "summary_fg_k": 2.7762182619039883,
  "summary_fg_mad": 123.51486327720288,
  "summary_fg_mean": 977.7141723632812,
  "summary_fg_median": 977.0714721679688,
  "summary_fg_n": 38265.0,
  "summary_fg_p05": 790.6174926757812,
  "summary_fg_p95": 1171.9190673828125,
  "summary_fg_stdv": 129.32923889160156,
  "tsnr": 40.76814870815724
}