{
  "aor": 0.011043858267716533,
  "aqi": 0.04819865440944882,
  "bids_meta": {
    "AcquisitionMatrixPE": 64,
    "AcquisitionNumber": 1,
    "AcquisitionTime": "10:47:34.625000",
    "BandwidthPerPixelPhaseEncode": 24.038,
    "BaseResolution": 64,
    "BodyPartExamined": "HEAD",
    "ConsistencyInfo": "N4_VD13A_LATEST_20120616",
    "ConversionSoftware": "dcm2niix",
    "ConversionSoftwareVersion": "v1.0.20181125  GCC6.3.0",
    "DerivedVendorReportedEchoSpacing": 0.000650012,
    "DeviceSerialNumber": "45250",
    "DwellTime": 4.6e-06,
    "EchoTime": 0.033,
    "EchoTrainLength": 64,
    "EffectiveEchoSpacing": 0.000650012,
    "FlipAngle": 90,
    "ImageOrientationPatientDICOM": [
      0.998047,
      -0.00708446,
      -0.0620604,
      4.4484e-09,
      0.993547,
      -0.113418
    ],
    "ImageType": [
      "ORIGINAL",
      "PRIMARY",
      "M",
      "ND",
      "NORM",
      "MOSAIC"
    ],
    "ImagingFrequency": 123.22,
    "InPlanePhaseEncodingDirectionDICOM": "COL",
    "InstitutionAddress": "Kopernikusstr._26_Graz_Graz_AT_8010",
    "InstitutionName": "KFU",
    "InstitutionalDepartmentName": "Department",
    "MRAcquisitionType": "2D",
    "MagneticFieldStrength": 3,
    "Manufacturer": "Siemens",
    "ManufacturersModelName": "Skyra",
    "Modality": "MR",
    "PartialFourier": 1,
    "PatientPosition": "HFS",
    "PercentPhaseFOV": 100,
    "PhaseEncodingDirection": "j-",
    "PhaseEncodingSteps": 64,
    "PhaseResolution": 1,
    "PixelBandwidth": 1700,
    "ProcedureStepDescription": "KFU_Entw-Psy",
    "ProtocolName": "fMRI_3",
    "PulseSequenceDetails": "%SiemensSeq%_ep2d_pace",
    "ReceiveCoilActiveElements": "HE1-4",
    "ReceiveCoilName": "HeadNeck_20",
    "ReconMatrixPE": 64,
    "RepetitionTime": 2.34,
    "SAR": 0.151816,
    "ScanOptions": "FS",
    "ScanningSequence": "EP",
    "SequenceName": "_epfid2d1_64",
    "SequenceVariant": "SK",
    "SeriesDescription": "fMRI_3",
    "SeriesNumber": 8,
    "ShimSetting": [
      -1691,
      -3692,
      -4308,
      389,
      676,
      15,
      -48,
      -390
    ],
    "SliceThickness": 3,
    "SliceTiming": [
      2.25,
      2.1825,
      2.115,
      2.0475,
      1.9775,
      1.91,
      1.8425,
      1.7725,
      1.705,
      1.6375,
      1.5675,
      1.5,
      1.4325,
      1.365,
      1.295,
      1.2275,
      1.16,
      1.09,
      1.0225,
      0.955,
      0.8875,
      0.8175,
      0.75,
      0.6825,
      0.6125,
      0.545,
      0.4775,
      0.41,
      0.34,
      0.2725,
      0.205,
      0.135,
      0.0675,
      0
    ],
    "SoftwareVersions": "syngo_MR_D13",
    "SpacingBetweenSlices": 3.3,
    "StationName": "FBMTMR1",
    "TaskName": "read",
    "TotalReadoutTime": 0.0409508,
    "TxRefAmp": 340.41,
    "dataset": "ds003126",
    "dcmmeta_affine": [
      [
        -2.9941418170928955,
        1.334520938200967e-08,
        -0.20612943172454834,
        96.52567291259766
      ],
      [
        0.021253371611237526,
        2.980642318725586,
        -0.3735470175743103,
        -108.55193328857422
      ],
      [
        -0.1861812323331833,
        0.3402526378631592,
        3.272304058074951,
        -16.200851440429688
      ],
      [
        0.0,
        0.0,
        0.0,
        1.0
      ]
    ],
    "dcmmeta_reorient_transform": [
      [
        0.0,
        -1.0,
        0.0,
        63.0
      ],
      [
        1.0,
        0.0,
        0.0,
        0.0
      ],
      [
        0.0,
        0.0,
        1.0,
        0.0
      ],
      [
        0.0,
        0.0,
        0.0,
        1.0
      ]
    ],
    "dcmmeta_shape": [
      64,
      64,
      34,
      127
    ],
    "dcmmeta_slice_dim": 2,
    "dcmmeta_version": 0.6,
    "global": {
      "const": {
        "AcquisitionMatrix": [
          64,
          0,
          0,
          64
        ],
        "AngioFlag": "N",
        "BitsAllocated": 16,
        "BitsStored": 12,
        "BodyPartExamined": "HEAD",
        "Columns": 384,
        "EchoNumbers": 1,
        "EchoTime": 33.0,
        "EchoTrainLength": 64,
        "FlipAngle": 90.0,
        "HighBit": 11,
        "ImageOrientationPatient": [
          0.9980472512945,
          -0.0070844568987,
          -0.0620604113259,
          4.448403e-09,
          0.99354741250735,
          -0.1134175431755
        ],
        "ImagePositionPatient": [
          -575.58835592128,
          -552.73074623183,
          89.464482929864
        ],
        "ImageType": [
          "ORIGINAL",
          "PRIMARY",
          "M",
          "ND",
          "NORM",
          "MOSAIC"
        ],
        "ImagedNucleus": "1H",
        "ImagingFrequency": 123.22001,
        "InPlanePhaseEncodingDirection": "COL",
        "MRAcquisitionType": "2D",
        "MagneticFieldStrength": 3.0,
        "Manufacturer": "SIEMENS",
        "ManufacturerModelName": "Skyra",
        "Modality": "MR",
        "NumberOfAverages": 1.0,
        "NumberOfPhaseEncodingSteps": 64,
        "PercentPhaseFieldOfView": 100.0,
        "PercentSampling": 100.0,
        "PerformedProcedureStepStartTime": "102302.531000",
        "PhotometricInterpretation": "MONOCHROME2",
        "PixelBandwidth": 1700.0,
        "PixelRepresentation": 0,
        "PixelSpacing": [
          3.0,
          3.0
        ],
        "ProtocolName": "fMRI_3",
        "RepetitionTime": 2340.0,
        "Rows": 384,
        "SAR": 0.15181616080594,
        "SamplesPerPixel": 1,
        "ScanOptions": "FS",
        "ScanningSequence": "EP",
        "SequenceName": "*epfid2d1_64",
        "SequenceVariant": "SK",
        "SeriesDescription": "fMRI_3",
        "SeriesNumber": 8,
        "SeriesTime": "104839.344000",
        "SliceLocation": -9.8065572474021,
        "SliceThickness": 3.0,
        "SmallestImagePixelValue": 0,
        "SoftwareVersions": "syngo MR D13",
        "SpacingBetweenSlices": 3.3000000404691,
        "SpecificCharacterSet": "ISO_IR 100",
        "StudyID": "1",
        "StudyTime": "102302.482000",
        "TransmitCoilName": "Body",
        "VariableFlipAngleFlag": "N",
        "WindowCenterWidthExplanation": "Algo1",
        "dBdt": 0.0
      },
      "slices": {}
    },
    "modality": "bold",
    "run_id": 3,
    "session_id": "2",
    "subject_id": "047EPKL014067",
    "task_id": "read",
    "time": {
      "samples": {
        "AcquisitionNumber": [
          1,
          2,
          3,
          4,
          5,
          6,
          7,
          8,
          9,
          10,
          11,
          12,
          13,
          14,
          15,
          16,
          17,
          18,
          19,
          20,
          21,
          22,
          23,
          24,
          25,
          26,
          27,
          28,
          29,
          30,
          31,
          32,
          33,
          34,
          35,
          36,
          37,
          38,
          39,
          40,
          41,
          42,
          43,
          44,
          45,
          46,
          47,
          48,
          49,
          50,
          51,
          52,
          53,
          54,
          55,
          56,
          57,
          58,
          59,
          60,
          61,
          62,
          63,
          64,
          65,
          66,
          67,
          68,
          69,
          70,
          71,
          72,
          73,
          74,
          75,
          76,
          77,
          78,
          79,
          80,
          81,
          82,
          83,
          84,
          85,
          86,
          87,
          88,
          89,
          90,
          91,
          92,
          93,
          94,
          95,
          96,
          97,
          98,
          99,
          100,
          101,
          102,
          103,
          104,
          105,
          106,
          107,
          108,
          109,
          110,
          111,
          112,
          113,
          114,
          115,
          116,
          117,
          118,
          119,
          120,
          121,
          122,
          123,
          124,
          125,
          126,
          127
        ],
        "AcquisitionTime": [
          "104734.625000",
          "104736.965000",
          "104739.305000",
          "104741.645000",
          "104743.985000",
          "104746.325000",
          "104748.665000",
          "104751.005000",
          "104753.345000",
          "104755.685000",
          "104758.025000",
          "104800.365000",
          "104802.705000",
          "104805.045000",
          "104807.385000",
          "104809.725000",
          "104812.065000",
          "104814.405000",
          "104816.745000",
          "104819.085000",
          "104821.425000",
          "104823.765000",
          "104826.105000",
          "104828.445000",
          "104830.785000",
          "104833.125000",
          "104835.465000",
          "104837.805000",
          "104840.145000",
          "104842.485000",
          "104844.825000",
          "104847.165000",
          "104849.505000",
          "104851.845000",
          "104854.185000",
          "104856.525000",
          "104858.865000",
          "104901.205000",
          "104903.545000",
          "104905.885000",
          "104908.225000",
          "104910.565000",
          "104912.905000",
          "104915.245000",
          "104917.585000",
          "104919.925000",
          "104922.265000",
          "104924.605000",
          "104926.945000",
          "104929.285000",
          "104931.625000",
          "104933.965000",
          "104936.305000",
          "104938.645000",
          "104940.985000",
          "104943.325000",
          "104945.665000",
          "104948.005000",
          "104950.345000",
          "104952.685000",
          "104955.025000",
          "104957.365000",
          "104959.705000",
          "105002.045000",
          "105004.385000",
          "105006.725000",
          "105009.065000",
          "105011.405000",
          "105013.745000",
          "105016.085000",
          "105018.425000",
          "105020.765000",
          "105023.105000",
          "105025.445000",
          "105027.785000",
          "105030.125000",
          "105032.465000",
          "105034.805000",
          "105037.145000",
          "105039.485000",
          "105041.825000",
          "105044.165000",
          "105046.505000",
          "105048.845000",
          "105051.185000",
          "105053.525000",
          "105055.865000",
          "105058.205000",
          "105100.545000",
          "105102.885000",
          "105105.225000",
          "105107.565000",
          "105109.905000",
          "105112.245000",
          "105114.585000",
          "105116.925000",
          "105119.265000",
          "105121.605000",
          "105123.945000",
          "105126.285000",
          "105128.625000",
          "105130.965000",
          "105133.305000",
          "105135.645000",
          "105137.985000",
          "105140.325000",
          "105142.665000",
          "105145.005000",
          "105147.345000",
          "105149.685000",
          "105152.025000",
          "105154.365000",
          "105156.705000",
          "105159.045000",
          "105201.385000",
          "105203.725000",
          "105206.065000",
          "105208.405000",
          "105210.745000",
          "105213.085000",
          "105215.425000",
          "105217.765000",
          "105220.105000",
          "105222.445000",
          "105224.785000",
          "105227.125000",
          "105229.465000"
        ],
        "ContentTime": [
          "104839.349000",
          "104839.353000",
          "104839.356000",
          "104839.358000",
          "104839.361000",
          "104839.363000",
          "104839.366000",
          "104839.368000",
          "104839.371000",
          "104839.373000",
          "104839.376000",
          "104839.379000",
          "104839.381000",
          "104839.384000",
          "104839.387000",
          "104839.389000",
          "104839.392000",
          "104839.394000",
          "104839.397000",
          "104839.400000",
          "104839.403000",
          "104839.405000",
          "104839.411000",
          "104839.414000",
          "104839.416000",
          "104839.419000",
          "104839.421000",
          "104839.424000",
          "104939.343000",
          "104939.346000",
          "104939.349000",
          "104939.352000",
          "104939.355000",
          "104939.357000",
          "104939.360000",
          "104939.362000",
          "104939.365000",
          "104939.368000",
          "104939.370000",
          "104939.373000",
          "104939.375000",
          "104939.378000",
          "104939.380000",
          "104939.383000",
          "104939.386000",
          "104939.388000",
          "104939.391000",
          "104939.394000",
          "104939.396000",
          "104939.399000",
          "104939.401000",
          "104939.404000",
          "104939.407000",
          "104939.409000",
          "105039.342000",
          "105039.345000",
          "105039.348000",
          "105039.350000",
          "105039.353000",
          "105039.355000",
          "105039.358000",
          "105039.366000",
          "105039.369000",
          "105039.372000",
          "105039.374000",
          "105039.377000",
          "105039.380000",
          "105039.382000",
          "105039.385000",
          "105039.388000",
          "105039.391000",
          "105039.394000",
          "105039.396000",
          "105039.399000",
          "105039.402000",
          "105039.405000",
          "105039.408000",
          "105039.411000",
          "105039.413000",
          "105139.340000",
          "105139.344000",
          "105139.346000",
          "105139.349000",
          "105139.351000",
          "105139.354000",
          "105139.357000",
          "105139.359000",
          "105139.362000",
          "105139.364000",
          "105139.367000",
          "105139.379000",
          "105139.381000",
          "105139.384000",
          "105139.386000",
          "105139.389000",
          "105139.392000",
          "105139.394000",
          "105139.406000",
          "105139.408000",
          "105139.411000",
          "105139.414000",
          "105139.416000",
          "105139.419000",
          "105139.421000",
          "105139.424000",
          "105230.976000",
          "105230.981000",
          "105230.986000",
          "105230.991000",
          "105230.996000",
          "105231.001000",
          "105231.004000",
          "105231.011000",
          "105231.015000",
          "105231.019000",
          "105231.022000",
          "105231.025000",
          "105231.029000",
          "105231.034000",
          "105231.038000",
          "105231.042000",
          "105231.044000",
          "105231.047000",
          "105231.051000",
          "105231.055000",
          "105231.059000",
          "105231.062000"
        ],
        "InstanceCreationTime": [
          "104839.349000",
          "104839.353000",
          "104839.356000",
          "104839.358000",
          "104839.361000",
          "104839.363000",
          "104839.366000",
          "104839.368000",
          "104839.371000",
          "104839.373000",
          "104839.376000",
          "104839.379000",
          "104839.381000",
          "104839.384000",
          "104839.387000",
          "104839.389000",
          "104839.392000",
          "104839.394000",
          "104839.397000",
          "104839.400000",
          "104839.403000",
          "104839.405000",
          "104839.411000",
          "104839.414000",
          "104839.416000",
          "104839.419000",
          "104839.421000",
          "104839.424000",
          "104939.343000",
          "104939.346000",
          "104939.349000",
          "104939.352000",
          "104939.355000",
          "104939.357000",
          "104939.360000",
          "104939.362000",
          "104939.365000",
          "104939.368000",
          "104939.370000",
          "104939.373000",
          "104939.375000",
          "104939.378000",
          "104939.380000",
          "104939.383000",
          "104939.386000",
          "104939.388000",
          "104939.391000",
          "104939.394000",
          "104939.396000",
          "104939.399000",
          "104939.401000",
          "104939.404000",
          "104939.407000",
          "104939.409000",
          "105039.342000",
          "105039.345000",
          "105039.348000",
          "105039.350000",
          "105039.353000",
          "105039.355000",
          "105039.358000",
          "105039.366000",
          "105039.369000",
          "105039.372000",
          "105039.374000",
          "105039.377000",
          "105039.380000",
          "105039.382000",
          "105039.385000",
          "105039.388000",
          "105039.391000",
          "105039.394000",
          "105039.396000",
          "105039.399000",
          "105039.402000",
          "105039.405000",
          "105039.408000",
          "105039.411000",
          "105039.413000",
          "105139.340000",
          "105139.344000",
          "105139.346000",
          "105139.349000",
          "105139.351000",
          "105139.354000",
          "105139.357000",
          "105139.359000",
          "105139.362000",
          "105139.364000",
          "105139.367000",
          "105139.379000",
          "105139.381000",
          "105139.384000",
          "105139.386000",
          "105139.389000",
          "105139.392000",
          "105139.394000",
          "105139.406000",
          "105139.408000",
          "105139.411000",
          "105139.414000",
          "105139.416000",
          "105139.419000",
          "105139.421000",
          "105139.424000",
          "105230.976000",
          "105230.981000",
          "105230.986000",
          "105230.991000",
          "105230.996000",
          "105231.001000",
          "105231.004000",
          "105231.011000",
          "105231.015000",
          "105231.019000",
          "105231.022000",
          "105231.025000",
          "105231.029000",
          "105231.034000",
          "105231.038000",
          "105231.042000",
          "105231.044000",
          "105231.047000",
          "105231.051000",
          "105231.055000",
          "105231.059000",
          "105231.062000"
        ],
        "InstanceNumber": [
          1,
          2,
          3,
          4,
          5,
          6,
          7,
          8,
          9,
          10,
          11,
          12,
          13,
          14,
          15,
          16,
          17,
          18,
          19,
          20,
          21,
          22,
          23,
          24,
          25,
          26,
          27,
          28,
          29,
          30,
          31,
          32,
          33,
          34,
          35,
          36,
          37,
          38,
          39,
          40,
          41,
          42,
          43,
          44,
          45,
          46,
          47,
          48,
          49,
          50,
          51,
          52,
          53,
          54,
          55,
          56,
          57,
          58,
          59,
          60,
          61,
          62,
          63,
          64,
          65,
          66,
          67,
          68,
          69,
          70,
          71,
          72,
          73,
          74,
          75,
          76,
          77,
          78,
          79,
          80,
          81,
          82,
          83,
          84,
          85,
          86,
          87,
          88,
          89,
          90,
          91,
          92,
          93,
          94,
          95,
          96,
          97,
          98,
          99,
          100,
          101,
          102,
          103,
          104,
          105,
          106,
          107,
          108,
          109,
          110,
          111,
          112,
          113,
          114,
          115,
          116,
          117,
          118,
          119,
          120,
          121,
          122,
          123,
          124,
          125,
          126,
          127
        ],
        "LargestImagePixelValue": [
          1883,
          2875,
          3415,
          2541,
          2976,
          2885,
          2573,
          2410,
          3218,
          2652,
          3192,
          2976,
          2284,
          2112,
          3261,
          2747,
          2718,
          3260,
          2486,
          3118,
          2129,
          3271,
          1948,
          2604,
          3214,
          2380,
          2439,
          2047,
          2762,
          2983,
          3420,
          1915,
          2450,
          3199,
          1939,
          1997,
          1903,
          3275,
          3175,
          3454,
          2962,
          1961,
          1980,
          1970,
          1834,
          1824,
          2893,
          2584,
          1977,
          2612,
          2958,
          2955,
          3315,
          1954,
          2566,
          1832,
          1881,
          3063,
          1949,
          1834,
          1828,
          1873,
          2369,
          3609,
          2868,
          2475,
          2406,
          2099,
          1898,
          1912,
          1935,
          2217,
          2766,
          2390,
          2619,
          3200,
          2518,
          2809,
          1855,
          1944,
          2492,
          1857,
          2170,
          2299,
          2171,
          1893,
          2540,
          2681,
          2090,
          3074,
          2378,
          3155,
          2479,
          1881,
          2886,
          3779,
          3111,
          1978,
          2192,
          2120,
          1943,
          1979,
          2202,
          2453,
          3117,
          3537,
          2068,
          2025,
          1897,
          1888,
          1818,
          1949,
          2059,
          1944,
          1929,
          2563,
          2549,
          1814,
          1830,
          2828,
          3522,
          2895,
          1845,
          1967,
          2043,
          3042,
          1903
        ],
        "WindowCenter": [
          851.0,
          851.0,
          852.0,
          851.0,
          853.0,
          849.0,
          848.0,
          852.0,
          852.0,
          849.0,
          849.0,
          849.0,
          850.0,
          853.0,
          853.0,
          853.0,
          852.0,
          852.0,
          852.0,
          851.0,
          851.0,
          853.0,
          852.0,
          852.0,
          854.0,
          850.0,
          852.0,
          853.0,
          851.0,
          852.0,
          852.0,
          853.0,
          853.0,
          854.0,
          849.0,
          856.0,
          852.0,
          850.0,
          847.0,
          845.0,
          840.0,
          841.0,
          843.0,
          850.0,
          851.0,
          857.0,
          857.0,
          856.0,
          857.0,
          857.0,
          853.0,
          854.0,
          855.0,
          850.0,
          849.0,
          854.0,
          853.0,
          857.0,
          853.0,
          853.0,
          858.0,
          849.0,
          849.0,
          847.0,
          842.0,
          842.0,
          844.0,
          851.0,
          847.0,
          859.0,
          859.0,
          859.0,
          859.0,
          861.0,
          856.0,
          857.0,
          857.0,
          854.0,
          852.0,
          853.0,
          857.0,
          864.0,
          861.0,
          867.0,
          864.0,
          866.0,
          863.0,
          865.0,
          864.0,
          866.0,
          866.0,
          864.0,
          861.0,
          862.0,
          857.0,
          860.0,
          855.0,
          853.0,
          854.0,
          858.0,
          855.0,
          863.0,
          858.0,
          861.0,
          858.0,
          855.0,
          848.0,
          850.0,
          851.0,
          853.0,
          857.0,
          861.0,
          860.0,
          864.0,
          863.0,
          865.0,
          863.0,
          863.0,
          863.0,
          864.0,
          862.0,
          860.0,
          858.0,
          866.0,
          860.0,
          863.0,
          859.0
        ],
        "WindowWidth": [
          1795.0,
          1799.0,
          1801.0,
          1798.0,
          1801.0,
          1792.0,
          1791.0,
          1802.0,
          1802.0,
          1792.0,
          1794.0,
          1796.0,
          1794.0,
          1801.0,
          1807.0,
          1802.0,
          1799.0,
          1801.0,
          1800.0,
          1799.0,
          1798.0,
          1804.0,
          1800.0,
          1804.0,
          1807.0,
          1794.0,
          1800.0,
          1805.0,
          1800.0,
          1802.0,
          1803.0,
          1800.0,
          1802.0,
          1807.0,
          1791.0,
          1808.0,
          1803.0,
          1797.0,
          1789.0,
          1782.0,
          1772.0,
          1770.0,
          1774.0,
          1793.0,
          1795.0,
          1813.0,
          1814.0,
          1808.0,
          1810.0,
          1816.0,
          1802.0,
          1806.0,
          1809.0,
          1794.0,
          1792.0,
          1803.0,
          1801.0,
          1812.0,
          1799.0,
          1802.0,
          1812.0,
          1800.0,
          1799.0,
          1787.0,
          1773.0,
          1768.0,
          1770.0,
          1793.0,
          1782.0,
          1823.0,
          1817.0,
          1818.0,
          1822.0,
          1821.0,
          1815.0,
          1817.0,
          1812.0,
          1806.0,
          1798.0,
          1799.0,
          1810.0,
          1826.0,
          1822.0,
          1839.0,
          1830.0,
          1836.0,
          1832.0,
          1835.0,
          1831.0,
          1840.0,
          1839.0,
          1840.0,
          1827.0,
          1826.0,
          1821.0,
          1824.0,
          1808.0,
          1805.0,
          1805.0,
          1815.0,
          1808.0,
          1824.0,
          1820.0,
          1827.0,
          1820.0,
          1811.0,
          1786.0,
          1800.0,
          1798.0,
          1802.0,
          1813.0,
          1821.0,
          1818.0,
          1830.0,
          1824.0,
          1832.0,
          1828.0,
          1830.0,
          1831.0,
          1833.0,
          1829.0,
          1820.0,
          1814.0,
          1839.0,
          1823.0,
          1829.0,
          1818.0
        ]
      },
      "slices": {}
    }
  },
  "dummy_trs": 0,
  "dvars_nstd": 59.33514641960318,
  "dvars_std": 1.3574671393650792,
  "dvars_vstd": 1.0900873214285716,
  "efc": 0.5962712129440593,
  "fber": 1584.698486328125,
  "fd_mean": 1.3961547552978242,
  "fd_num": 117,
  "fd_perc": 92.1259842519685,
  "fwhm_avg": 1.6269464720591442,
  "fwhm_x": 1.52424,
  "fwhm_y": 1.8175933333333332,
  "fwhm_z": 1.5390060828440995,
  "gcor": 0.116291,
  "gsr_x": 0.003117595100775361,
  "gsr_y": 0.04604853689670563,
  "provenance": {
    "md5sum": "8a44caa1809f1b1770913107c145ba52",
    "settings": {
      "fd_thres": 0.2,
      "testing": false
    },
    "software": "mriqc",
    "version": "22.0.1",
    "webapi_port": null,
    "webapi_url": "https://mriqc.nimh.nih.gov/api/v1"
  },
  "size_t": 127,
  "size_x": 64,
  "size_y": 64,
  "size_z": 34,
  "snr": 7.619319768399615,
  "spacing_tr": 2.3399999141693115,
  "spacing_x": 3.0,
  "spacing_y": 3.0,
  "spacing_z": 3.299999952316284,
  "summary_bg_k": 43.00289814046544,
  "summary_bg_mad": 11.253768310246546,
  "summary_bg_mean": 41.25574493408203,
  "summary_bg_median": 24.165353775024414,
  "summary_bg_n": 68606.0,
  "summary_bg_p05": 13.472440719604492,
  "summary_bg_p95": 112.1436996459961,
  "summary_bg_stdv": 60.854736328125,
  "summary_fg_k": 2.612989794491156,
  "summary_fg_mad": 124.52107637343536,
  "summary_fg_mean": 988.6978759765625,
  "summary_fg_median": 987.409423828125,
  "summary_fg_n": 38074.0,
  "summary_fg_p05": 798.4696563720703,
  "summary_fg_p95": 1184.5295166015624,
  "summary_fg_stdv": 129.59115600585938,
  "tsnr": 29.47889310400933
}