{
  "aor": 0.0038589922480620153,
  "aqi": 0.010247010387596898,
  "bids_meta": {
    "AcquisitionMatrixPE": 64,
    "AcquisitionNumber": 1,
    "AcquisitionTime": "13:54:59.732500",
    "BandwidthPerPixelPhaseEncode": 24.038,
    "BaseResolution": 64,
    "BodyPartExamined": "HEAD",
    "ConsistencyInfo": "N4_VD13A_LATEST_20120616",
    "ConversionSoftware": "dcm2niix",
    "ConversionSoftwareVersion": "v1.0.20181125  GCC6.3.0",
    "DerivedVendorReportedEchoSpacing": 0.000650012,
    "DeviceSerialNumber": "45250",
    "DwellTime": 4.6e-06,
    "EchoTime": 0.033,
    "EchoTrainLength": 64,
    "EffectiveEchoSpacing": 0.000650012,
    "FlipAngle": 90,
    "ImageOrientationPatientDICOM": [
      0.999641,
      0.00154002,
      -0.0267603,
      -0.00697894,
      0.978869,
      -0.204369
    ],
    "ImageType": [
      "ORIGINAL",
      "PRIMARY",
      "M",
      "ND",
      "NORM",
      "MOSAIC"
    ],
    "ImagingFrequency": 123.214,
    "InPlanePhaseEncodingDirectionDICOM": "COL",
    "InstitutionAddress": "Kopernikusstr._26_Graz_Graz_AT_8010",
    "InstitutionName": "KFU",
    "InstitutionalDepartmentName": "Department",
    "MRAcquisitionType": "2D",
    "MagneticFieldStrength": 3,
    "Manufacturer": "Siemens",
    "ManufacturersModelName": "Skyra",
    "Modality": "MR",
    "PartialFourier": 1,
    "PatientPosition": "HFS",
    "PercentPhaseFOV": 100,
    "PhaseEncodingDirection": "j-",
    "PhaseEncodingSteps": 64,
    "PhaseResolution": 1,
    "PixelBandwidth": 1700,
    "ProcedureStepDescription": "KFU_Entw-Psy",
    "ProtocolName": "fMRI_2",
    "PulseSequenceDetails": "%SiemensSeq%_ep2d_pace",
    "ReceiveCoilActiveElements": "HE1-4",
    "ReceiveCoilName": "HeadNeck_20",
    "ReconMatrixPE": 64,
    "RepetitionTime": 2.34,
    "SAR": 0.190837,
    "ScanOptions": "FS",
    "ScanningSequence": "EP",
    "SequenceName": "_epfid2d1_64",
    "SequenceVariant": "SK",
    "SeriesDescription": "fMRI_2",
    "SeriesNumber": 5,
    "ShimSetting": [
      -1586,
      -3700,
      -4345,
      283,
      487,
      -20,
      480,
      -200
    ],
    "SliceThickness": 3,
    "SliceTiming": [
      2.2525,
      2.1825,
      2.115,
      2.0475,
      1.98,
      1.91,
      1.8425,
      1.775,
      1.705,
      1.6375,
      1.57,
      1.5025,
      1.4325,
      1.365,
      1.2975,
      1.2275,
      1.16,
      1.0925,
      1.025,
      0.955,
      0.8875,
      0.82,
      0.75,
      0.6825,
      0.615,
      0.545,
      0.4775,
      0.41,
      0.3425,
      0.2725,
      0.205,
      0.1375,
      0.0675,
      0
    ],
    "SoftwareVersions": "syngo_MR_D13",
    "SpacingBetweenSlices": 3.3,
    "StationName": "FBMTMR1",
    "TaskName": "read",
    "TotalReadoutTime": 0.0409508,
    "TxRefAmp": 366.19,
    "dataset": "ds003126",
    "dcmmeta_affine": [
      [
        -2.998922109603882,
        -0.02093682996928692,
        -0.085404172539711,
        96.39998626708984
      ],
      [
        -0.004620055202394724,
        2.9366073608398438,
        -0.6747907996177673,
        -103.6840591430664
      ],
      [
        -0.08028075098991394,
        0.6131062507629395,
        3.229142904281616,
        -19.22987937927246
      ],
      [
        0.0,
        0.0,
        0.0,
        1.0
      ]
    ],
    "dcmmeta_reorient_transform": [
      [
        0.0,
        -1.0,
        0.0,
        63.0
      ],
      [
        1.0,
        0.0,
        0.0,
        0.0
      ],
      [
        0.0,
        0.0,
        1.0,
        0.0
      ],
      [
        0.0,
        0.0,
        0.0,
        1.0
      ]
    ],
    "dcmmeta_shape": [
      64,
      64,
      34,
      129
    ],
    "dcmmeta_slice_dim": 2,
    "dcmmeta_version": 0.6,
    "global": {
      "const": {
        "AcquisitionMatrix": [
          64,
          0,
          0,
          64
        ],
        "AngioFlag": "N",
        "BitsAllocated": 16,
        "BitsStored": 12,
        "BodyPartExamined": "HEAD",
        "Columns": 384,
        "EchoNumbers": 1,
        "EchoTime": 33.0,
        "EchoTrainLength": 64,
        "FlipAngle": 90.0,
        "HighBit": 11,
        "ImageOrientationPatient": [
          0.9996406940905,
          0.00154001846625,
          -0.0267602515196,
          -0.0069789430547,
          0.97886909790122,
          -0.2043687440092
        ],
        "ImagePositionPatient": [
          -571.55860877333,
          -551.91857384871,
          130.33773131044
        ],
        "ImageType": [
          "ORIGINAL",
          "PRIMARY",
          "M",
          "ND",
          "NORM",
          "MOSAIC"
        ],
        "ImagedNucleus": "1H",
        "ImagingFrequency": 123.214077,
        "InPlanePhaseEncodingDirection": "COL",
        "MRAcquisitionType": "2D",
        "MagneticFieldStrength": 3.0,
        "Manufacturer": "SIEMENS",
        "ManufacturerModelName": "Skyra",
        "Modality": "MR",
        "NumberOfAverages": 1.0,
        "NumberOfPhaseEncodingSteps": 64,
        "PercentPhaseFieldOfView": 100.0,
        "PercentSampling": 100.0,
        "PerformedProcedureStepStartTime": "133923.549000",
        "PhotometricInterpretation": "MONOCHROME2",
        "PixelBandwidth": 1700.0,
        "PixelRepresentation": 0,
        "PixelSpacing": [
          3.0,
          3.0
        ],
        "ProtocolName": "fMRI_2",
        "RepetitionTime": 2340.0,
        "Rows": 384,
        "SAR": 0.19083698650197,
        "SamplesPerPixel": 1,
        "ScanOptions": "FS",
        "ScanningSequence": "EP",
        "SequenceName": "*epfid2d1_64",
        "SequenceVariant": "SK",
        "SeriesDescription": "fMRI_2",
        "SeriesNumber": 5,
        "SeriesTime": "135603.619000",
        "SliceLocation": -0.1102827491791,
        "SliceThickness": 3.0,
        "SmallestImagePixelValue": 0,
        "SoftwareVersions": "syngo MR D13",
        "SpacingBetweenSlices": 3.2999999564824,
        "SpecificCharacterSet": "ISO_IR 100",
        "StudyID": "1",
        "StudyTime": "133923.504000",
        "TransmitCoilName": "Body",
        "VariableFlipAngleFlag": "N",
        "WindowCenterWidthExplanation": "Algo1",
        "dBdt": 0.0
      },
      "slices": {}
    },
    "modality": "bold",
    "run_id": 2,
    "session_id": "2",
    "subject_id": "047EPKL011051",
    "task_id": "read",
    "time": {
      "samples": {
        "AcquisitionNumber": [
          1,
          2,
          3,
          4,
          5,
          6,
          7,
          8,
          9,
          10,
          11,
          12,
          13,
          14,
          15,
          16,
          17,
          18,
          19,
          20,
          21,
          22,
          23,
          24,
          25,
          26,
          27,
          28,
          29,
          30,
          31,
          32,
          33,
          34,
          35,
          36,
          37,
          38,
          39,
          40,
          41,
          42,
          43,
          44,
          45,
          46,
          47,
          48,
          49,
          50,
          51,
          52,
          53,
          54,
          55,
          56,
          57,
          58,
          59,
          60,
          61,
          62,
          63,
          64,
          65,
          66,
          67,
          68,
          69,
          70,
          71,
          72,
          73,
          74,
          75,
          76,
          77,
          78,
          79,
          80,
          81,
          82,
          83,
          84,
          85,
          86,
          87,
          88,
          89,
          90,
          91,
          92,
          93,
          94,
          95,
          96,
          97,
          98,
          99,
          100,
          101,
          102,
          103,
          104,
          105,
          106,
          107,
          108,
          109,
          110,
          111,
          112,
          113,
          114,
          115,
          116,
          117,
          118,
          119,
          120,
          121,
          122,
          123,
          124,
          125,
          126,
          127,
          128,
          129
        ],
        "AcquisitionTime": [
          "135459.732500",
          "135502.072500",
          "135504.412500",
          "135506.752500",
          "135509.092500",
          "135511.432500",
          "135513.772500",
          "135516.112500",
          "135518.452500",
          "135520.792500",
          "135523.132500",
          "135525.472500",
          "135527.812500",
          "135530.152500",
          "135532.492500",
          "135534.832500",
          "135537.172500",
          "135539.512500",
          "135541.852500",
          "135544.192500",
          "135546.532500",
          "135548.872500",
          "135551.212500",
          "135553.552500",
          "135555.892500",
          "135558.232500",
          "135600.572500",
          "135602.912500",
          "135605.252500",
          "135607.592500",
          "135609.932500",
          "135612.272500",
          "135614.612500",
          "135616.952500",
          "135619.292500",
          "135621.632500",
          "135623.972500",
          "135626.312500",
          "135628.652500",
          "135630.992500",
          "135633.332500",
          "135635.672500",
          "135638.012500",
          "135640.352500",
          "135642.692500",
          "135645.032500",
          "135647.372500",
          "135649.712500",
          "135652.052500",
          "135654.392500",
          "135656.732500",
          "135659.072500",
          "135701.412500",
          "135703.752500",
          "135706.092500",
          "135708.432500",
          "135710.772500",
          "135713.112500",
          "135715.452500",
          "135717.792500",
          "135720.132500",
          "135722.472500",
          "135724.812500",
          "135727.152500",
          "135729.492500",
          "135731.832500",
          "135734.172500",
          "135736.512500",
          "135738.852500",
          "135741.192500",
          "135743.532500",
          "135745.872500",
          "135748.212500",
          "135750.552500",
          "135752.892500",
          "135755.232500",
          "135757.572500",
          "135759.912500",
          "135802.252500",
          "135804.592500",
          "135806.932500",
          "135809.272500",
          "135811.612500",
          "135813.952500",
          "135816.292500",
          "135818.632500",
          "135820.972500",
          "135823.312500",
          "135825.652500",
          "135827.992500",
          "135830.332500",
          "135832.672500",
          "135835.012500",
          "135837.352500",
          "135839.692500",
          "135842.032500",
          "135844.372500",
          "135846.712500",
          "135849.052500",
          "135851.392500",
          "135853.732500",
          "135856.072500",
          "135858.412500",
          "135900.752500",
          "135903.092500",
          "135905.432500",
          "135907.772500",
          "135910.112500",
          "135912.452500",
          "135914.792500",
          "135917.132500",
          "135919.472500",
          "135921.812500",
          "135924.152500",
          "135926.492500",
          "135928.832500",
          "135931.172500",
          "135933.512500",
          "135935.852500",
          "135938.192500",
          "135940.532500",
          "135942.872500",
          "135945.212500",
          "135947.552500",
          "135949.892500",
          "135952.232500",
          "135954.572500",
          "135956.912500",
          "135959.252500"
        ],
        "ContentTime": [
          "135603.623000",
          "135603.627000",
          "135603.630000",
          "135603.637000",
          "135603.640000",
          "135603.642000",
          "135603.645000",
          "135603.648000",
          "135603.651000",
          "135603.654000",
          "135603.656000",
          "135603.659000",
          "135603.662000",
          "135603.664000",
          "135603.667000",
          "135603.670000",
          "135603.673000",
          "135603.675000",
          "135603.678000",
          "135603.681000",
          "135603.688000",
          "135603.690000",
          "135603.693000",
          "135603.695000",
          "135603.698000",
          "135603.701000",
          "135603.703000",
          "135703.619000",
          "135703.622000",
          "135703.625000",
          "135703.627000",
          "135703.631000",
          "135703.633000",
          "135703.636000",
          "135703.638000",
          "135703.649000",
          "135703.652000",
          "135703.655000",
          "135703.657000",
          "135703.660000",
          "135703.663000",
          "135703.666000",
          "135703.669000",
          "135703.671000",
          "135703.674000",
          "135703.677000",
          "135703.680000",
          "135703.682000",
          "135703.685000",
          "135703.688000",
          "135703.691000",
          "135703.694000",
          "135703.697000",
          "135803.619000",
          "135803.622000",
          "135803.625000",
          "135803.628000",
          "135803.630000",
          "135803.633000",
          "135803.636000",
          "135803.638000",
          "135803.641000",
          "135803.644000",
          "135803.646000",
          "135803.649000",
          "135803.652000",
          "135803.655000",
          "135803.657000",
          "135803.660000",
          "135803.662000",
          "135803.665000",
          "135803.668000",
          "135803.670000",
          "135803.673000",
          "135803.675000",
          "135803.678000",
          "135803.681000",
          "135803.683000",
          "135803.686000",
          "135903.619000",
          "135903.629000",
          "135903.632000",
          "135903.634000",
          "135903.637000",
          "135903.640000",
          "135903.642000",
          "135903.645000",
          "135903.648000",
          "135903.651000",
          "135903.653000",
          "135903.656000",
          "135903.659000",
          "135903.661000",
          "135903.664000",
          "135903.666000",
          "135903.669000",
          "135903.672000",
          "135903.689000",
          "135903.692000",
          "135903.695000",
          "135903.698000",
          "135903.701000",
          "135903.703000",
          "135903.706000",
          "140002.245000",
          "140002.248000",
          "140002.251000",
          "140002.259000",
          "140002.264000",
          "140002.268000",
          "140002.272000",
          "140002.275000",
          "140002.278000",
          "140002.281000",
          "140002.284000",
          "140002.289000",
          "140002.293000",
          "140002.297000",
          "140002.302000",
          "140002.305000",
          "140002.308000",
          "140002.312000",
          "140002.315000",
          "140002.318000",
          "140002.321000",
          "140002.324000",
          "140002.327000",
          "140002.330000",
          "140002.333000"
        ],
        "InstanceCreationTime": [
          "135603.623000",
          "135603.627000",
          "135603.630000",
          "135603.637000",
          "135603.640000",
          "135603.642000",
          "135603.645000",
          "135603.648000",
          "135603.651000",
          "135603.654000",
          "135603.656000",
          "135603.659000",
          "135603.662000",
          "135603.664000",
          "135603.667000",
          "135603.670000",
          "135603.673000",
          "135603.675000",
          "135603.678000",
          "135603.681000",
          "135603.688000",
          "135603.690000",
          "135603.693000",
          "135603.695000",
          "135603.698000",
          "135603.701000",
          "135603.703000",
          "135703.619000",
          "135703.622000",
          "135703.625000",
          "135703.627000",
          "135703.631000",
          "135703.633000",
          "135703.636000",
          "135703.638000",
          "135703.649000",
          "135703.652000",
          "135703.655000",
          "135703.657000",
          "135703.660000",
          "135703.663000",
          "135703.666000",
          "135703.669000",
          "135703.671000",
          "135703.674000",
          "135703.677000",
          "135703.680000",
          "135703.682000",
          "135703.685000",
          "135703.688000",
          "135703.691000",
          "135703.694000",
          "135703.697000",
          "135803.619000",
          "135803.622000",
          "135803.625000",
          "135803.628000",
          "135803.630000",
          "135803.633000",
          "135803.636000",
          "135803.638000",
          "135803.641000",
          "135803.644000",
          "135803.646000",
          "135803.649000",
          "135803.652000",
          "135803.655000",
          "135803.657000",
          "135803.660000",
          "135803.662000",
          "135803.665000",
          "135803.668000",
          "135803.670000",
          "135803.673000",
          "135803.675000",
          "135803.678000",
          "135803.681000",
          "135803.683000",
          "135803.686000",
          "135903.619000",
          "135903.629000",
          "135903.632000",
          "135903.634000",
          "135903.637000",
          "135903.640000",
          "135903.642000",
          "135903.645000",
          "135903.648000",
          "135903.651000",
          "135903.653000",
          "135903.656000",
          "135903.659000",
          "135903.661000",
          "135903.664000",
          "135903.666000",
          "135903.669000",
          "135903.672000",
          "135903.689000",
          "135903.692000",
          "135903.695000",
          "135903.698000",
          "135903.701000",
          "135903.703000",
          "135903.706000",
          "140002.245000",
          "140002.248000",
          "140002.251000",
          "140002.259000",
          "140002.264000",
          "140002.268000",
          "140002.272000",
          "140002.275000",
          "140002.278000",
          "140002.281000",
          "140002.284000",
          "140002.289000",
          "140002.293000",
          "140002.297000",
          "140002.302000",
          "140002.305000",
          "140002.308000",
          "140002.312000",
          "140002.315000",
          "140002.318000",
          "140002.321000",
          "140002.324000",
          "140002.327000",
          "140002.330000",
          "140002.333000"
        ],
        "InstanceNumber": [
          1,
          2,
          3,
          4,
          5,
          6,
          7,
          8,
          9,
          10,
          11,
          12,
          13,
          14,
          15,
          16,
          17,
          18,
          19,
          20,
          21,
          22,
          23,
          24,
          25,
          26,
          27,
          28,
          29,
          30,
          31,
          32,
          33,
          34,
          35,
          36,
          37,
          38,
          39,
          40,
          41,
          42,
          43,
          44,
          45,
          46,
          47,
          48,
          49,
          50,
          51,
          52,
          53,
          54,
          55,
          56,
          57,
          58,
          59,
          60,
          61,
          62,
          63,
          64,
          65,
          66,
          67,
          68,
          69,
          70,
          71,
          72,
          73,
          74,
          75,
          76,
          77,
          78,
          79,
          80,
          81,
          82,
          83,
          84,
          85,
          86,
          87,
          88,
          89,
          90,
          91,
          92,
          93,
          94,
          95,
          96,
          97,
          98,
          99,
          100,
          101,
          102,
          103,
          104,
          105,
          106,
          107,
          108,
          109,
          110,
          111,
          112,
          113,
          114,
          115,
          116,
          117,
          118,
          119,
          120,
          121,
          122,
          123,
          124,
          125,
          126,
          127,
          128,
          129
        ],
        "LargestImagePixelValue": [
          1922,
          2196,
          2874,
          2070,
          2852,
          2002,
          1717,
          1932,
          2028,
          1841,
          1978,
          1753,
          1763,
          1788,
          1785,
          1773,
          1742,
          1765,
          1738,
          1973,
          1836,
          1746,
          1971,
          1767,
          1783,
          1784,
          2055,
          1806,
          1810,
          1843,
          1751,
          1749,
          1797,
          1762,
          1749,
          1927,
          1809,
          1735,
          2071,
          1757,
          1761,
          1753,
          1991,
          1757,
          1753,
          1769,
          1787,
          1731,
          1932,
          1833,
          2595,
          1738,
          2461,
          1782,
          1742,
          2093,
          1842,
          1759,
          1793,
          1751,
          1803,
          1752,
          1923,
          1749,
          1801,
          1738,
          2089,
          1935,
          1765,
          1751,
          2090,
          1874,
          1764,
          1789,
          1721,
          1803,
          2115,
          1733,
          2032,
          2642,
          1965,
          1913,
          2622,
          1800,
          1798,
          2027,
          1774,
          1830,
          1753,
          2177,
          1801,
          1977,
          1751,
          1828,
          1774,
          1942,
          1729,
          1734,
          1959,
          1738,
          1872,
          2661,
          2575,
          1740,
          1787,
          2202,
          1769,
          1786,
          1847,
          2616,
          1722,
          1751,
          1812,
          1765,
          1847,
          2355,
          1797,
          1786,
          2040,
          2859,
          2522,
          1744,
          1997,
          1849,
          1753,
          1797,
          1751,
          2123,
          1751
        ],
        "WindowCenter": [
          808.0,
          808.0,
          806.0,
          808.0,
          807.0,
          805.0,
          804.0,
          805.0,
          806.0,
          806.0,
          805.0,
          804.0,
          804.0,
          807.0,
          805.0,
          806.0,
          803.0,
          805.0,
          805.0,
          806.0,
          806.0,
          806.0,
          804.0,
          802.0,
          805.0,
          807.0,
          808.0,
          806.0,
          805.0,
          808.0,
          806.0,
          805.0,
          806.0,
          806.0,
          807.0,
          806.0,
          807.0,
          806.0,
          806.0,
          805.0,
          809.0,
          809.0,
          808.0,
          807.0,
          806.0,
          809.0,
          808.0,
          807.0,
          812.0,
          812.0,
          809.0,
          808.0,
          807.0,
          808.0,
          809.0,
          808.0,
          809.0,
          806.0,
          806.0,
          805.0,
          808.0,
          807.0,
          807.0,
          807.0,
          810.0,
          809.0,
          811.0,
          811.0,
          808.0,
          808.0,
          810.0,
          809.0,
          810.0,
          810.0,
          809.0,
          810.0,
          810.0,
          809.0,
          811.0,
          809.0,
          809.0,
          811.0,
          809.0,
          806.0,
          806.0,
          809.0,
          810.0,
          812.0,
          809.0,
          811.0,
          808.0,
          812.0,
          808.0,
          813.0,
          811.0,
          811.0,
          806.0,
          811.0,
          811.0,
          808.0,
          811.0,
          812.0,
          809.0,
          809.0,
          812.0,
          812.0,
          810.0,
          810.0,
          813.0,
          810.0,
          807.0,
          809.0,
          808.0,
          807.0,
          812.0,
          815.0,
          812.0,
          813.0,
          814.0,
          814.0,
          809.0,
          808.0,
          811.0,
          812.0,
          809.0,
          808.0,
          810.0,
          814.0,
          811.0
        ],
        "WindowWidth": [
          1680.0,
          1679.0,
          1675.0,
          1680.0,
          1677.0,
          1671.0,
          1669.0,
          1674.0,
          1675.0,
          1677.0,
          1673.0,
          1671.0,
          1672.0,
          1678.0,
          1674.0,
          1675.0,
          1669.0,
          1674.0,
          1673.0,
          1674.0,
          1675.0,
          1675.0,
          1671.0,
          1667.0,
          1674.0,
          1678.0,
          1681.0,
          1673.0,
          1671.0,
          1682.0,
          1674.0,
          1673.0,
          1674.0,
          1675.0,
          1677.0,
          1675.0,
          1679.0,
          1674.0,
          1676.0,
          1674.0,
          1681.0,
          1682.0,
          1682.0,
          1677.0,
          1675.0,
          1683.0,
          1681.0,
          1678.0,
          1688.0,
          1689.0,
          1682.0,
          1680.0,
          1678.0,
          1681.0,
          1683.0,
          1679.0,
          1682.0,
          1675.0,
          1675.0,
          1674.0,
          1680.0,
          1677.0,
          1677.0,
          1676.0,
          1683.0,
          1682.0,
          1685.0,
          1686.0,
          1680.0,
          1680.0,
          1684.0,
          1681.0,
          1686.0,
          1683.0,
          1681.0,
          1686.0,
          1684.0,
          1683.0,
          1687.0,
          1683.0,
          1681.0,
          1686.0,
          1682.0,
          1674.0,
          1676.0,
          1683.0,
          1685.0,
          1692.0,
          1684.0,
          1687.0,
          1679.0,
          1688.0,
          1679.0,
          1695.0,
          1687.0,
          1687.0,
          1675.0,
          1687.0,
          1688.0,
          1679.0,
          1689.0,
          1689.0,
          1682.0,
          1682.0,
          1691.0,
          1691.0,
          1684.0,
          1685.0,
          1692.0,
          1686.0,
          1678.0,
          1683.0,
          1680.0,
          1678.0,
          1690.0,
          1696.0,
          1689.0,
          1693.0,
          1695.0,
          1695.0,
          1684.0,
          1680.0,
          1687.0,
          1689.0,
          1682.0,
          1680.0,
          1684.0,
          1695.0,
          1687.0
        ]
      },
      "slices": {}
    }
  },
  "dummy_trs": 0,
  "dvars_nstd": 33.48197726914062,
  "dvars_std": 1.301669203203125,
  "dvars_vstd": 1.0338340414843752,
  "efc": 0.6053484343772838,
  "fber": 1372.70751953125,
  "fd_mean": 0.38110004412430576,
  "fd_num": 99,
  "fd_perc": 76.74418604651163,
  "fwhm_avg": 1.609930512485881,
  "fwhm_x": 1.53588,
  "fwhm_y": 1.7501933333333335,
  "fwhm_z": 1.5437182041243092,
  "gcor": 0.0735521,
  "gsr_x": 0.0004587759030982852,
  "gsr_y": 0.0324624627828598,
  "provenance": {
    "md5sum": "68a4c1eee3cc6890ea81b748a454492a",
    "settings": {
      "fd_thres": 0.2,
      "testing": false
    },
    "software": "mriqc",
    "version": "22.0.1",
    "webapi_port": null,
    "webapi_url": "https://mriqc.nimh.nih.gov/api/v1"
  },
  "size_t": 129,
  "size_x": 64,
  "size_y": 64,
  "size_z": 34,
  "snr": 6.420064957945974,
  "spacing_tr": 2.3399999141693115,
  "spacing_x": 3.0,
  "spacing_y": 3.0,
  "spacing_z": 3.299999952316284,
  "summary_bg_k": 60.782151855912176,
  "summary_bg_mad": 10.68852706279308,
  "summary_bg_mean": 32.96818542480469,
  "summary_bg_median": 22.9069766998291,
  "summary_bg_n": 66085.0,
  "summary_bg_p05": 11.937984466552734,
  "summary_bg_p95": 80.64496002197252,
  "summary_bg_stdv": 39.15707015991211,
  "summary_fg_k": 2.038409192117962,
  "summary_fg_mad": 129.94025714483035,
  "summary_fg_mean": 871.6958618164062,
  "summary_fg_median": 866.3720703125,
  "summary_fg_n": 40577.0,
  "summary_fg_p05": 679.0465087890625,
  "summary_fg_p95": 1088.2899658203125,
  "summary_fg_stdv": 134.94589233398438,
  "tsnr": 61.20610872795805
}