{
  "aor": 0.0029483593749999996,
  "aqi": 0.012181184140624999,
  "bids_meta": {
    "AcquisitionMatrixPE": 64,
    "AcquisitionNumber": 1,
    "AcquisitionTime": "13:49:4.257500",
    "BandwidthPerPixelPhaseEncode": 24.038,
    "BaseResolution": 64,
    "BodyPartExamined": "HEAD",
    "ConsistencyInfo": "N4_VD13A_LATEST_20120616",
    "ConversionSoftware": "dcm2niix",
    "ConversionSoftwareVersion": "v1.0.20181125  GCC6.3.0",
    "DerivedVendorReportedEchoSpacing": 0.000650012,
    "DeviceSerialNumber": "45250",
    "DwellTime": 4.6e-06,
    "EchoTime": 0.033,
    "EchoTrainLength": 64,
    "EffectiveEchoSpacing": 0.000650012,
    "FlipAngle": 90,
    "ImageOrientationPatientDICOM": [
      0.999641,
      0.00154002,
      -0.0267603,
      -0.00697894,
      0.978869,
      -0.204369
    ],
    "ImageType": [
      "ORIGINAL",
      "PRIMARY",
      "M",
      "ND",
      "NORM",
      "MOSAIC"
    ],
    "ImagingFrequency": 123.214,
    "InPlanePhaseEncodingDirectionDICOM": "COL",
    "InstitutionAddress": "Kopernikusstr._26_Graz_Graz_AT_8010",
    "InstitutionName": "KFU",
    "InstitutionalDepartmentName": "Department",
    "MRAcquisitionType": "2D",
    "MagneticFieldStrength": 3,
    "Manufacturer": "Siemens",
    "ManufacturersModelName": "Skyra",
    "Modality": "MR",
    "PartialFourier": 1,
    "PatientPosition": "HFS",
    "PercentPhaseFOV": 100,
    "PhaseEncodingDirection": "j-",
    "PhaseEncodingSteps": 64,
    "PhaseResolution": 1,
    "PixelBandwidth": 1700,
    "ProcedureStepDescription": "KFU_Entw-Psy",
    "ProtocolName": "fMRI_1",
    "PulseSequenceDetails": "%SiemensSeq%_ep2d_pace",
    "ReceiveCoilActiveElements": "HE1-4",
    "ReceiveCoilName": "HeadNeck_20",
    "ReconMatrixPE": 64,
    "RepetitionTime": 2.34,
    "SAR": 0.190837,
    "ScanOptions": "FS",
    "ScanningSequence": "EP",
    "SequenceName": "_epfid2d1_64",
    "SequenceVariant": "SK",
    "SeriesDescription": "fMRI_1",
    "SeriesNumber": 2,
    "ShimSetting": [
      -1586,
      -3700,
      -4345,
      283,
      487,
      -20,
      480,
      -200
    ],
    "SliceThickness": 3,
    "SliceTiming": [
      2.25,
      2.1825,
      2.115,
      2.045,
      1.9775,
      1.91,
      1.8425,
      1.7725,
      1.705,
      1.6375,
      1.5675,
      1.5,
      1.4325,
      1.365,
      1.295,
      1.2275,
      1.16,
      1.09,
      1.0225,
      0.955,
      0.8875,
      0.8175,
      0.75,
      0.6825,
      0.6125,
      0.545,
      0.4775,
      0.4075,
      0.34,
      0.2725,
      0.205,
      0.135,
      0.0675,
      0
    ],
    "SoftwareVersions": "syngo_MR_D13",
    "SpacingBetweenSlices": 3.3,
    "StationName": "FBMTMR1",
    "TaskName": "read",
    "TotalReadoutTime": 0.0409508,
    "TxRefAmp": 366.19,
    "dataset": "ds003126",
    "dcmmeta_affine": [
      [
        -2.998922109603882,
        -0.02093682996928692,
        -0.085404172539711,
        96.39998626708984
      ],
      [
        -0.004620055202394724,
        2.9366073608398438,
        -0.6747907996177673,
        -103.6840591430664
      ],
      [
        -0.08028075098991394,
        0.6131062507629395,
        3.229142904281616,
        -19.22987937927246
      ],
      [
        0.0,
        0.0,
        0.0,
        1.0
      ]
    ],
    "dcmmeta_reorient_transform": [
      [
        0.0,
        -1.0,
        0.0,
        63.0
      ],
      [
        1.0,
        0.0,
        0.0,
        0.0
      ],
      [
        0.0,
        0.0,
        1.0,
        0.0
      ],
      [
        0.0,
        0.0,
        0.0,
        1.0
      ]
    ],
    "dcmmeta_shape": [
      64,
      64,
      34,
      128
    ],
    "dcmmeta_slice_dim": 2,
    "dcmmeta_version": 0.6,
    "global": {
      "const": {
        "AcquisitionMatrix": [
          64,
          0,
          0,
          64
        ],
        "AngioFlag": "N",
        "BitsAllocated": 16,
        "BitsStored": 12,
        "BodyPartExamined": "HEAD",
        "Columns": 384,
        "EchoNumbers": 1,
        "EchoTime": 33.0,
        "EchoTrainLength": 64,
        "FlipAngle": 90.0,
        "HighBit": 11,
        "ImageOrientationPatient": [
          0.9996406940905,
          0.00154001846625,
          -0.0267602515196,
          -0.0069789430547,
          0.97886909790122,
          -0.2043687440092
        ],
        "ImagePositionPatient": [
          -571.55860877333,
          -551.91857384871,
          130.33773131044
        ],
        "ImageType": [
          "ORIGINAL",
          "PRIMARY",
          "M",
          "ND",
          "NORM",
          "MOSAIC"
        ],
        "ImagedNucleus": "1H",
        "ImagingFrequency": 123.214065,
        "InPlanePhaseEncodingDirection": "COL",
        "MRAcquisitionType": "2D",
        "MagneticFieldStrength": 3.0,
        "Manufacturer": "SIEMENS",
        "ManufacturerModelName": "Skyra",
        "Modality": "MR",
        "NumberOfAverages": 1.0,
        "NumberOfPhaseEncodingSteps": 64,
        "PercentPhaseFieldOfView": 100.0,
        "PercentSampling": 100.0,
        "PerformedProcedureStepStartTime": "133923.549000",
        "PhotometricInterpretation": "MONOCHROME2",
        "PixelBandwidth": 1700.0,
        "PixelRepresentation": 0,
        "PixelSpacing": [
          3.0,
          3.0
        ],
        "ProtocolName": "fMRI_1",
        "RepetitionTime": 2340.0,
        "Rows": 384,
        "SAR": 0.19083698650197,
        "SamplesPerPixel": 1,
        "ScanOptions": "FS",
        "ScanningSequence": "EP",
        "SequenceName": "*epfid2d1_64",
        "SequenceVariant": "SK",
        "SeriesDescription": "fMRI_1",
        "SeriesNumber": 2,
        "SeriesTime": "135007.772000",
        "SliceLocation": -0.1102827491791,
        "SliceThickness": 3.0,
        "SmallestImagePixelValue": 0,
        "SoftwareVersions": "syngo MR D13",
        "SpacingBetweenSlices": 3.2999999564824,
        "SpecificCharacterSet": "ISO_IR 100",
        "StudyID": "1",
        "StudyTime": "133923.504000",
        "TransmitCoilName": "Body",
        "VariableFlipAngleFlag": "N",
        "WindowCenterWidthExplanation": "Algo1",
        "dBdt": 0.0
      },
      "slices": {}
    },
    "modality": "bold",
    "run_id": 1,
    "session_id": "2",
    "subject_id": "047EPKL011051",
    "task_id": "read",
    "time": {
      "samples": {
        "AcquisitionNumber": [
          1,
          2,
          3,
          4,
          5,
          6,
          7,
          8,
          9,
          10,
          11,
          12,
          13,
          14,
          15,
          16,
          17,
          18,
          19,
          20,
          21,
          22,
          23,
          24,
          25,
          26,
          27,
          28,
          29,
          30,
          31,
          32,
          33,
          34,
          35,
          36,
          37,
          38,
          39,
          40,
          41,
          42,
          43,
          44,
          45,
          46,
          47,
          48,
          49,
          50,
          51,
          52,
          53,
          54,
          55,
          56,
          57,
          58,
          59,
          60,
          61,
          62,
          63,
          64,
          65,
          66,
          67,
          68,
          69,
          70,
          71,
          72,
          73,
          74,
          75,
          76,
          77,
          78,
          79,
          80,
          81,
          82,
          83,
          84,
          85,
          86,
          87,
          88,
          89,
          90,
          91,
          92,
          93,
          94,
          95,
          96,
          97,
          98,
          99,
          100,
          101,
          102,
          103,
          104,
          105,
          106,
          107,
          108,
          109,
          110,
          111,
          112,
          113,
          114,
          115,
          116,
          117,
          118,
          119,
          120,
          121,
          122,
          123,
          124,
          125,
          126,
          127,
          128
        ],
        "AcquisitionTime": [
          "134904.257500",
          "134906.597500",
          "134908.937500",
          "134911.277500",
          "134913.617500",
          "134915.957500",
          "134918.297500",
          "134920.637500",
          "134922.977500",
          "134925.317500",
          "134927.657500",
          "134929.997500",
          "134932.337500",
          "134934.677500",
          "134937.017500",
          "134939.357500",
          "134941.697500",
          "134944.037500",
          "134946.377500",
          "134948.717500",
          "134951.057500",
          "134953.397500",
          "134955.737500",
          "134958.077500",
          "135000.417500",
          "135002.757500",
          "135005.097500",
          "135007.437500",
          "135009.777500",
          "135012.117500",
          "135014.457500",
          "135016.797500",
          "135019.137500",
          "135021.477500",
          "135023.817500",
          "135026.157500",
          "135028.497500",
          "135030.837500",
          "135033.177500",
          "135035.517500",
          "135037.857500",
          "135040.197500",
          "135042.537500",
          "135044.877500",
          "135047.217500",
          "135049.557500",
          "135051.897500",
          "135054.237500",
          "135056.577500",
          "135058.917500",
          "135101.257500",
          "135103.597500",
          "135105.937500",
          "135108.277500",
          "135110.617500",
          "135112.957500",
          "135115.297500",
          "135117.637500",
          "135119.977500",
          "135122.317500",
          "135124.657500",
          "135126.997500",
          "135129.337500",
          "135131.677500",
          "135134.017500",
          "135136.357500",
          "135138.697500",
          "135141.037500",
          "135143.377500",
          "135145.717500",
          "135148.057500",
          "135150.397500",
          "135152.737500",
          "135155.077500",
          "135157.417500",
          "135159.757500",
          "135202.097500",
          "135204.437500",
          "135206.777500",
          "135209.117500",
          "135211.457500",
          "135213.797500",
          "135216.137500",
          "135218.477500",
          "135220.817500",
          "135223.157500",
          "135225.497500",
          "135227.837500",
          "135230.177500",
          "135232.517500",
          "135234.857500",
          "135237.197500",
          "135239.537500",
          "135241.877500",
          "135244.217500",
          "135246.557500",
          "135248.897500",
          "135251.237500",
          "135253.577500",
          "135255.917500",
          "135258.257500",
          "135300.597500",
          "135302.937500",
          "135305.277500",
          "135307.617500",
          "135309.957500",
          "135312.297500",
          "135314.637500",
          "135316.977500",
          "135319.317500",
          "135321.657500",
          "135323.997500",
          "135326.337500",
          "135328.677500",
          "135331.017500",
          "135333.357500",
          "135335.697500",
          "135338.037500",
          "135340.377500",
          "135342.717500",
          "135345.057500",
          "135347.397500",
          "135349.737500",
          "135352.077500",
          "135354.417500",
          "135356.757500",
          "135359.097500",
          "135401.437500"
        ],
        "ContentTime": [
          "135007.777000",
          "135007.780000",
          "135007.783000",
          "135007.786000",
          "135007.788000",
          "135007.791000",
          "135007.793000",
          "135007.796000",
          "135007.799000",
          "135007.801000",
          "135007.804000",
          "135007.807000",
          "135007.809000",
          "135007.812000",
          "135007.815000",
          "135007.818000",
          "135007.821000",
          "135007.823000",
          "135007.826000",
          "135007.829000",
          "135007.832000",
          "135007.835000",
          "135007.838000",
          "135007.841000",
          "135007.843000",
          "135007.846000",
          "135007.850000",
          "135027.771000",
          "135027.774000",
          "135027.777000",
          "135027.780000",
          "135027.782000",
          "135027.785000",
          "135027.788000",
          "135027.790000",
          "135027.793000",
          "135127.771000",
          "135127.775000",
          "135127.778000",
          "135127.780000",
          "135127.783000",
          "135127.786000",
          "135127.789000",
          "135127.792000",
          "135127.795000",
          "135127.797000",
          "135127.800000",
          "135127.803000",
          "135127.806000",
          "135127.809000",
          "135127.812000",
          "135127.814000",
          "135127.817000",
          "135127.820000",
          "135127.823000",
          "135127.831000",
          "135127.834000",
          "135127.837000",
          "135127.840000",
          "135127.842000",
          "135127.845000",
          "135127.850000",
          "135227.771000",
          "135227.774000",
          "135227.777000",
          "135227.779000",
          "135227.782000",
          "135227.785000",
          "135227.787000",
          "135227.790000",
          "135227.793000",
          "135227.796000",
          "135227.799000",
          "135227.801000",
          "135227.804000",
          "135227.807000",
          "135227.810000",
          "135227.813000",
          "135227.816000",
          "135227.819000",
          "135227.822000",
          "135227.825000",
          "135227.827000",
          "135227.830000",
          "135227.833000",
          "135227.836000",
          "135227.845000",
          "135327.771000",
          "135327.774000",
          "135327.777000",
          "135327.780000",
          "135327.783000",
          "135327.786000",
          "135327.789000",
          "135327.792000",
          "135327.795000",
          "135327.797000",
          "135327.800000",
          "135327.803000",
          "135327.806000",
          "135327.809000",
          "135327.812000",
          "135327.814000",
          "135327.817000",
          "135327.820000",
          "135327.823000",
          "135327.826000",
          "135327.829000",
          "135327.832000",
          "135327.835000",
          "135327.837000",
          "135327.840000",
          "135327.843000",
          "135404.136000",
          "135404.140000",
          "135404.144000",
          "135404.147000",
          "135404.151000",
          "135404.155000",
          "135404.158000",
          "135404.161000",
          "135404.164000",
          "135404.167000",
          "135404.169000",
          "135404.172000",
          "135404.175000",
          "135404.178000",
          "135404.180000"
        ],
        "InstanceCreationTime": [
          "135007.777000",
          "135007.780000",
          "135007.783000",
          "135007.786000",
          "135007.788000",
          "135007.791000",
          "135007.793000",
          "135007.796000",
          "135007.799000",
          "135007.801000",
          "135007.804000",
          "135007.807000",
          "135007.809000",
          "135007.812000",
          "135007.815000",
          "135007.818000",
          "135007.821000",
          "135007.823000",
          "135007.826000",
          "135007.829000",
          "135007.832000",
          "135007.835000",
          "135007.838000",
          "135007.841000",
          "135007.843000",
          "135007.846000",
          "135007.850000",
          "135027.771000",
          "135027.774000",
          "135027.777000",
          "135027.780000",
          "135027.782000",
          "135027.785000",
          "135027.788000",
          "135027.790000",
          "135027.793000",
          "135127.771000",
          "135127.775000",
          "135127.778000",
          "135127.780000",
          "135127.783000",
          "135127.786000",
          "135127.789000",
          "135127.792000",
          "135127.795000",
          "135127.797000",
          "135127.800000",
          "135127.803000",
          "135127.806000",
          "135127.809000",
          "135127.812000",
          "135127.814000",
          "135127.817000",
          "135127.820000",
          "135127.823000",
          "135127.831000",
          "135127.834000",
          "135127.837000",
          "135127.840000",
          "135127.842000",
          "135127.845000",
          "135127.850000",
          "135227.771000",
          "135227.774000",
          "135227.777000",
          "135227.779000",
          "135227.782000",
          "135227.785000",
          "135227.787000",
          "135227.790000",
          "135227.793000",
          "135227.796000",
          "135227.799000",
          "135227.801000",
          "135227.804000",
          "135227.807000",
          "135227.810000",
          "135227.813000",
          "135227.816000",
          "135227.819000",
          "135227.822000",
          "135227.825000",
          "135227.827000",
          "135227.830000",
          "135227.833000",
          "135227.836000",
          "135227.845000",
          "135327.771000",
          "135327.774000",
          "135327.777000",
          "135327.780000",
          "135327.783000",
          "135327.786000",
          "135327.789000",
          "135327.792000",
          "135327.795000",
          "135327.797000",
          "135327.800000",
          "135327.803000",
          "135327.806000",
          "135327.809000",
          "135327.812000",
          "135327.814000",
          "135327.817000",
          "135327.820000",
          "135327.823000",
          "135327.826000",
          "135327.829000",
          "135327.832000",
          "135327.835000",
          "135327.837000",
          "135327.840000",
          "135327.843000",
          "135404.136000",
          "135404.140000",
          "135404.144000",
          "135404.147000",
          "135404.151000",
          "135404.155000",
          "135404.158000",
          "135404.161000",
          "135404.164000",
          "135404.167000",
          "135404.169000",
          "135404.172000",
          "135404.175000",
          "135404.178000",
          "135404.180000"
        ],
        "InstanceNumber": [
          1,
          2,
          3,
          4,
          5,
          6,
          7,
          8,
          9,
          10,
          11,
          12,
          13,
          14,
          15,
          16,
          17,
          18,
          19,
          20,
          21,
          22,
          23,
          24,
          25,
          26,
          27,
          28,
          29,
          30,
          31,
          32,
          33,
          34,
          35,
          36,
          37,
          38,
          39,
          40,
          41,
          42,
          43,
          44,
          45,
          46,
          47,
          48,
          49,
          50,
          51,
          52,
          53,
          54,
          55,
          56,
          57,
          58,
          59,
          60,
          61,
          62,
          63,
          64,
          65,
          66,
          67,
          68,
          69,
          70,
          71,
          72,
          73,
          74,
          75,
          76,
          77,
          78,
          79,
          80,
          81,
          82,
          83,
          84,
          85,
          86,
          87,
          88,
          89,
          90,
          91,
          92,
          93,
          94,
          95,
          96,
          97,
          98,
          99,
          100,
          101,
          102,
          103,
          104,
          105,
          106,
          107,
          108,
          109,
          110,
          111,
          112,
          113,
          114,
          115,
          116,
          117,
          118,
          119,
          120,
          121,
          122,
          123,
          124,
          125,
          126,
          127,
          128
        ],
        "LargestImagePixelValue": [
          2759,
          2199,
          2946,
          1878,
          1962,
          2488,
          1979,
          1997,
          1748,
          1767,
          2039,
          1760,
          1760,
          1792,
          1752,
          1939,
          1726,
          1778,
          1803,
          1757,
          2026,
          1761,
          1775,
          2762,
          1759,
          2080,
          2107,
          1699,
          1749,
          1878,
          1715,
          2171,
          1752,
          1756,
          1709,
          1868,
          1977,
          1703,
          1962,
          1717,
          1709,
          1946,
          1915,
          2207,
          2046,
          1780,
          1791,
          1758,
          1728,
          1757,
          1727,
          2064,
          1764,
          1811,
          1777,
          1761,
          1784,
          2169,
          1843,
          1796,
          1884,
          1884,
          1814,
          1866,
          1788,
          2284,
          1761,
          2290,
          2000,
          1819,
          2033,
          2310,
          1750,
          1742,
          1719,
          1968,
          1748,
          2325,
          1702,
          2011,
          2145,
          1926,
          2274,
          1769,
          1782,
          1838,
          2079,
          1812,
          1960,
          1737,
          1816,
          2038,
          1849,
          1898,
          1820,
          1900,
          1841,
          2037,
          2550,
          2068,
          2197,
          1812,
          1782,
          1975,
          2046,
          2107,
          1794,
          2250,
          2697,
          1774,
          1785,
          1777,
          2352,
          2105,
          1793,
          1893,
          1778,
          2057,
          1764,
          2168,
          1801,
          1806,
          2261,
          1791,
          2423,
          1749,
          2287,
          2122
        ],
        "WindowCenter": [
          809.0,
          806.0,
          806.0,
          805.0,
          806.0,
          804.0,
          803.0,
          806.0,
          804.0,
          806.0,
          806.0,
          808.0,
          807.0,
          809.0,
          806.0,
          807.0,
          809.0,
          808.0,
          807.0,
          808.0,
          808.0,
          807.0,
          811.0,
          808.0,
          806.0,
          809.0,
          808.0,
          805.0,
          807.0,
          805.0,
          807.0,
          809.0,
          807.0,
          810.0,
          806.0,
          810.0,
          805.0,
          805.0,
          806.0,
          806.0,
          808.0,
          810.0,
          810.0,
          809.0,
          808.0,
          808.0,
          809.0,
          808.0,
          808.0,
          809.0,
          808.0,
          809.0,
          807.0,
          809.0,
          807.0,
          808.0,
          808.0,
          812.0,
          809.0,
          808.0,
          808.0,
          807.0,
          807.0,
          806.0,
          808.0,
          812.0,
          806.0,
          813.0,
          809.0,
          810.0,
          807.0,
          806.0,
          805.0,
          806.0,
          809.0,
          809.0,
          804.0,
          808.0,
          805.0,
          808.0,
          811.0,
          813.0,
          810.0,
          807.0,
          809.0,
          812.0,
          810.0,
          811.0,
          812.0,
          810.0,
          809.0,
          810.0,
          809.0,
          810.0,
          811.0,
          810.0,
          810.0,
          809.0,
          810.0,
          807.0,
          806.0,
          803.0,
          804.0,
          810.0,
          809.0,
          812.0,
          815.0,
          812.0,
          810.0,
          810.0,
          809.0,
          809.0,
          813.0,
          812.0,
          811.0,
          809.0,
          810.0,
          812.0,
          812.0,
          813.0,
          811.0,
          810.0,
          811.0,
          812.0,
          809.0,
          809.0,
          811.0,
          812.0
        ],
        "WindowWidth": [
          1685.0,
          1676.0,
          1676.0,
          1675.0,
          1676.0,
          1673.0,
          1670.0,
          1677.0,
          1672.0,
          1675.0,
          1677.0,
          1681.0,
          1679.0,
          1684.0,
          1677.0,
          1680.0,
          1684.0,
          1681.0,
          1679.0,
          1680.0,
          1682.0,
          1679.0,
          1687.0,
          1681.0,
          1676.0,
          1685.0,
          1680.0,
          1674.0,
          1677.0,
          1675.0,
          1678.0,
          1685.0,
          1679.0,
          1687.0,
          1677.0,
          1684.0,
          1674.0,
          1674.0,
          1677.0,
          1677.0,
          1680.0,
          1685.0,
          1685.0,
          1685.0,
          1680.0,
          1684.0,
          1684.0,
          1680.0,
          1683.0,
          1684.0,
          1681.0,
          1685.0,
          1682.0,
          1684.0,
          1679.0,
          1681.0,
          1681.0,
          1693.0,
          1685.0,
          1682.0,
          1682.0,
          1679.0,
          1680.0,
          1678.0,
          1683.0,
          1691.0,
          1678.0,
          1694.0,
          1683.0,
          1688.0,
          1682.0,
          1677.0,
          1673.0,
          1674.0,
          1683.0,
          1686.0,
          1674.0,
          1682.0,
          1674.0,
          1682.0,
          1687.0,
          1693.0,
          1685.0,
          1680.0,
          1683.0,
          1689.0,
          1686.0,
          1689.0,
          1690.0,
          1685.0,
          1685.0,
          1686.0,
          1684.0,
          1687.0,
          1690.0,
          1686.0,
          1689.0,
          1686.0,
          1687.0,
          1680.0,
          1678.0,
          1671.0,
          1674.0,
          1687.0,
          1685.0,
          1693.0,
          1698.0,
          1692.0,
          1690.0,
          1687.0,
          1684.0,
          1686.0,
          1694.0,
          1690.0,
          1688.0,
          1685.0,
          1687.0,
          1691.0,
          1693.0,
          1695.0,
          1688.0,
          1688.0,
          1688.0,
          1690.0,
          1685.0,
          1683.0,
          1690.0,
          1692.0
        ]
      },
      "slices": {}
    }
  },
  "dummy_trs": 0,
  "dvars_nstd": 35.60027711228346,
  "dvars_std": 1.2722648291338583,
  "dvars_vstd": 1.0151258326771655,
  "efc": 0.6033289725834083,
  "fber": 1393.3995361328125,
  "fd_mean": 0.4039362432275805,
  "fd_num": 96,
  "fd_perc": 75.0,
  "fwhm_avg": 1.6077713205965953,
  "fwhm_x": 1.5250866666666667,
  "fwhm_y": 1.7483000000000002,
  "fwhm_z": 1.549927295123119,
  "gcor": 0.0570015,
  "gsr_x": 0.0011049798922613263,
  "gsr_y": 0.031826555728912354,
  "provenance": {
    "md5sum": "191f3e76ac840d518b058879c116c390",
    "settings": {
      "fd_thres": 0.2,
      "testing": false
    },
    "software": "mriqc",
    "version": "22.0.1",
    "webapi_port": null,
    "webapi_url": "https://mriqc.nimh.nih.gov/api/v1"
  },
  "size_t": 128,
  "size_x": 64,
  "size_y": 64,
  "size_z": 34,
  "snr": 6.477694750644241,
  "spacing_tr": 2.3399999141693115,
  "spacing_x": 3.0,
  "spacing_y": 3.0,
  "spacing_z": 3.299999952316284,
  "summary_bg_k": 62.81247462913625,
  "summary_bg_mad": 10.609872126180713,
  "summary_bg_mean": 32.667598724365234,
  "summary_bg_median": 22.8203125,
  "summary_bg_n": 66418.0,
  "summary_bg_p05": 11.9140625,
  "summary_bg_p95": 78.51484374999973,
  "summary_bg_stdv": 38.595340728759766,
  "summary_fg_k": 1.8084089392757567,
  "summary_fg_mad": 130.4574123986609,
  "summary_fg_mean": 874.6286010742188,
  "summary_fg_median": 869.640625,
  "summary_fg_n": 40274.0,
  "summary_fg_p05": 681.340625,
  "summary_fg_p95": 1090.0765625,
  "summary_fg_stdv": 134.24989318847656,
  "tsnr": 56.45272755110636
}