{
  "aor": 0.016065826771653545,
  "aqi": 0.016531740787401578,
  "bids_meta": {
    "AcquisitionMatrixPE": 64,
    "AcquisitionNumber": 1,
    "AcquisitionTime": "11:29:43.277500",
    "BandwidthPerPixelPhaseEncode": 24.038,
    "BaseResolution": 64,
    "BodyPartExamined": "HEAD",
    "ConsistencyInfo": "N4_VD13A_LATEST_20120616",
    "ConversionSoftware": "dcm2niix",
    "ConversionSoftwareVersion": "v1.0.20181125  GCC6.3.0",
    "DerivedVendorReportedEchoSpacing": 0.000650012,
    "DeviceSerialNumber": "45250",
    "DwellTime": 4.6e-06,
    "EchoTime": 0.033,
    "EchoTrainLength": 64,
    "EffectiveEchoSpacing": 0.000650012,
    "FlipAngle": 90,
    "ImageOrientationPatientDICOM": [
      0.999805,
      0.0138269,
      0.0141215,
      -0.0104703,
      0.976578,
      -0.21491
    ],
    "ImageType": [
      "ORIGINAL",
      "PRIMARY",
      "M",
      "ND",
      "NORM",
      "MOSAIC"
    ],
    "ImagingFrequency": 123.214,
    "InPlanePhaseEncodingDirectionDICOM": "COL",
    "InstitutionAddress": "Kopernikusstr._26_Graz_Graz_AT_8010",
    "InstitutionName": "KFU",
    "InstitutionalDepartmentName": "Department",
    "MRAcquisitionType": "2D",
    "MagneticFieldStrength": 3,
    "Manufacturer": "Siemens",
    "ManufacturersModelName": "Skyra",
    "Modality": "MR",
    "PartialFourier": 1,
    "PatientPosition": "HFS",
    "PercentPhaseFOV": 100,
    "PhaseEncodingDirection": "j-",
    "PhaseEncodingSteps": 64,
    "PhaseResolution": 1,
    "PixelBandwidth": 1700,
    "ProcedureStepDescription": "KFU_Entw-Psy",
    "ProtocolName": "fMRI_1",
    "PulseSequenceDetails": "%SiemensSeq%_ep2d_pace",
    "ReceiveCoilActiveElements": "HE1-4",
    "ReceiveCoilName": "HeadNeck_20",
    "ReconMatrixPE": 64,
    "RepetitionTime": 2.34,
    "SAR": 0.201133,
    "ScanOptions": "FS",
    "ScanningSequence": "EP",
    "SequenceName": "_epfid2d1_64",
    "SequenceVariant": "SK",
    "SeriesDescription": "fMRI_1",
    "SeriesNumber": 2,
    "ShimSetting": [
      -1535,
      -3719,
      -4221,
      553,
      427,
      65,
      131,
      -258
    ],
    "SliceThickness": 3,
    "SliceTiming": [
      2.2525,
      2.1825,
      2.115,
      2.0475,
      1.98,
      1.91,
      1.8425,
      1.775,
      1.705,
      1.6375,
      1.57,
      1.5,
      1.4325,
      1.365,
      1.2975,
      1.2275,
      1.16,
      1.0925,
      1.0225,
      0.955,
      0.8875,
      0.82,
      0.75,
      0.6825,
      0.615,
      0.545,
      0.4775,
      0.41,
      0.3425,
      0.2725,
      0.205,
      0.1375,
      0.0675,
      0
    ],
    "SoftwareVersions": "syngo_MR_D13",
    "SpacingBetweenSlices": 3.3,
    "StationName": "FBMTMR1",
    "TaskName": "read",
    "TotalReadoutTime": 0.0409508,
    "TxRefAmp": 340.276,
    "dataset": "ds003126",
    "dcmmeta_affine": [
      [
        -2.9994139671325684,
        -0.03141077235341072,
        0.05531548336148262,
        96.22587585449219
      ],
      [
        -0.04148077219724655,
        2.9297330379486084,
        -0.7085779309272766,
        -109.9301528930664
      ],
      [
        0.04236442595720291,
        0.6447312235832214,
        3.2225544452667236,
        -18.36676597595215
      ],
      [
        0.0,
        0.0,
        0.0,
        1.0
      ]
    ],
    "dcmmeta_reorient_transform": [
      [
        0.0,
        -1.0,
        0.0,
        63.0
      ],
      [
        1.0,
        0.0,
        0.0,
        0.0
      ],
      [
        0.0,
        0.0,
        1.0,
        0.0
      ],
      [
        0.0,
        0.0,
        0.0,
        1.0
      ]
    ],
    "dcmmeta_shape": [
      64,
      64,
      34,
      128
    ],
    "dcmmeta_slice_dim": 2,
    "dcmmeta_version": 0.6,
    "global": {
      "const": {
        "AcquisitionMatrix": [
          64,
          0,
          0,
          64
        ],
        "AngioFlag": "N",
        "BitsAllocated": 16,
        "BitsStored": 12,
        "BodyPartExamined": "HEAD",
        "Columns": 384,
        "EchoNumbers": 1,
        "EchoTime": 33.0,
        "EchoTrainLength": 64,
        "FlipAngle": 90.0,
        "HighBit": 11,
        "ImageOrientationPatient": [
          0.99980468097526,
          0.01382692381998,
          0.01412147575978,
          -0.0104702574994,
          0.97657764066213,
          -0.214910412653
        ],
        "ImagePositionPatient": [
          -569.1275195885,
          -550.03720951584,
          118.62999189192
        ],
        "ImageType": [
          "ORIGINAL",
          "PRIMARY",
          "M",
          "ND",
          "NORM",
          "MOSAIC"
        ],
        "ImagedNucleus": "1H",
        "ImagingFrequency": 123.214464,
        "InPlanePhaseEncodingDirection": "COL",
        "MRAcquisitionType": "2D",
        "MagneticFieldStrength": 3.0,
        "Manufacturer": "SIEMENS",
        "ManufacturerModelName": "Skyra",
        "Modality": "MR",
        "NumberOfAverages": 1.0,
        "NumberOfPhaseEncodingSteps": 64,
        "PercentPhaseFieldOfView": 100.0,
        "PercentSampling": 100.0,
        "PerformedProcedureStepStartTime": "112356.647000",
        "PhotometricInterpretation": "MONOCHROME2",
        "PixelBandwidth": 1700.0,
        "PixelRepresentation": 0,
        "PixelSpacing": [
          3.0,
          3.0
        ],
        "ProtocolName": "fMRI_1",
        "RepetitionTime": 2340.0,
        "Rows": 384,
        "SAR": 0.20113290813828,
        "SamplesPerPixel": 1,
        "ScanOptions": "FS",
        "ScanningSequence": "EP",
        "SequenceName": "*epfid2d1_64",
        "SequenceVariant": "SK",
        "SeriesDescription": "fMRI_1",
        "SeriesNumber": 2,
        "SeriesTime": "113044.993000",
        "SliceLocation": 7.2815022676081,
        "SliceThickness": 3.0,
        "SmallestImagePixelValue": 0,
        "SoftwareVersions": "syngo MR D13",
        "SpacingBetweenSlices": 3.2999999763032,
        "SpecificCharacterSet": "ISO_IR 100",
        "StudyID": "1",
        "StudyTime": "112356.602000",
        "TransmitCoilName": "Body",
        "VariableFlipAngleFlag": "N",
        "WindowCenterWidthExplanation": "Algo1",
        "dBdt": 0.0
      },
      "slices": {}
    },
    "modality": "bold",
    "run_id": 1,
    "session_id": "2",
    "subject_id": "047EPKL013028",
    "task_id": "read",
    "time": {
      "samples": {
        "AcquisitionNumber": [
          1,
          2,
          3,
          4,
          5,
          6,
          7,
          8,
          9,
          10,
          11,
          12,
          13,
          14,
          15,
          16,
          17,
          18,
          19,
          20,
          21,
          22,
          23,
          24,
          25,
          26,
          27,
          28,
          29,
          30,
          31,
          32,
          33,
          34,
          35,
          36,
          37,
          38,
          39,
          40,
          41,
          42,
          43,
          44,
          45,
          46,
          47,
          48,
          49,
          50,
          51,
          52,
          53,
          54,
          55,
          56,
          57,
          58,
          59,
          60,
          61,
          62,
          63,
          64,
          65,
          66,
          67,
          68,
          69,
          70,
          71,
          72,
          73,
          74,
          75,
          76,
          77,
          78,
          79,
          80,
          81,
          82,
          83,
          84,
          85,
          86,
          87,
          88,
          89,
          90,
          91,
          92,
          93,
          94,
          95,
          96,
          97,
          98,
          99,
          100,
          101,
          102,
          103,
          104,
          105,
          106,
          107,
          108,
          109,
          110,
          111,
          112,
          113,
          114,
          115,
          116,
          117,
          118,
          119,
          120,
          121,
          122,
          123,
          124,
          125,
          126,
          127,
          128
        ],
        "AcquisitionTime": [
          "112943.277500",
          "112945.617500",
          "112947.957500",
          "112950.297500",
          "112952.637500",
          "112954.977500",
          "112957.317500",
          "112959.657500",
          "113001.997500",
          "113004.337500",
          "113006.677500",
          "113009.017500",
          "113011.357500",
          "113013.697500",
          "113016.037500",
          "113018.377500",
          "113020.717500",
          "113023.057500",
          "113025.397500",
          "113027.737500",
          "113030.077500",
          "113032.417500",
          "113034.757500",
          "113037.097500",
          "113039.437500",
          "113041.777500",
          "113044.117500",
          "113046.457500",
          "113048.797500",
          "113051.137500",
          "113053.477500",
          "113055.817500",
          "113058.157500",
          "113100.497500",
          "113102.837500",
          "113105.177500",
          "113107.517500",
          "113109.857500",
          "113112.197500",
          "113114.537500",
          "113116.877500",
          "113119.217500",
          "113121.557500",
          "113123.897500",
          "113126.237500",
          "113128.577500",
          "113130.917500",
          "113133.257500",
          "113135.597500",
          "113137.937500",
          "113140.277500",
          "113142.617500",
          "113144.957500",
          "113147.297500",
          "113149.637500",
          "113151.977500",
          "113154.317500",
          "113156.657500",
          "113158.997500",
          "113201.337500",
          "113203.677500",
          "113206.017500",
          "113208.357500",
          "113210.697500",
          "113213.037500",
          "113215.377500",
          "113217.717500",
          "113220.057500",
          "113222.397500",
          "113224.737500",
          "113227.077500",
          "113229.417500",
          "113231.757500",
          "113234.097500",
          "113236.437500",
          "113238.777500",
          "113241.117500",
          "113243.457500",
          "113245.797500",
          "113248.137500",
          "113250.477500",
          "113252.817500",
          "113255.157500",
          "113257.497500",
          "113259.837500",
          "113302.177500",
          "113304.517500",
          "113306.857500",
          "113309.197500",
          "113311.537500",
          "113313.877500",
          "113316.217500",
          "113318.557500",
          "113320.897500",
          "113323.237500",
          "113325.577500",
          "113327.917500",
          "113330.257500",
          "113332.597500",
          "113334.937500",
          "113337.277500",
          "113339.617500",
          "113341.957500",
          "113344.297500",
          "113346.637500",
          "113348.977500",
          "113351.317500",
          "113353.657500",
          "113355.997500",
          "113358.337500",
          "113400.677500",
          "113403.017500",
          "113405.357500",
          "113407.697500",
          "113410.037500",
          "113412.377500",
          "113414.717500",
          "113417.057500",
          "113419.397500",
          "113421.737500",
          "113424.077500",
          "113426.417500",
          "113428.757500",
          "113431.097500",
          "113433.437500",
          "113435.777500",
          "113438.117500",
          "113440.457500"
        ],
        "ContentTime": [
          "113044.997000",
          "113045.002000",
          "113045.005000",
          "113045.007000",
          "113045.010000",
          "113045.013000",
          "113045.016000",
          "113045.018000",
          "113045.021000",
          "113045.024000",
          "113045.027000",
          "113045.029000",
          "113045.032000",
          "113045.035000",
          "113045.037000",
          "113045.040000",
          "113045.043000",
          "113045.045000",
          "113045.048000",
          "113045.051000",
          "113045.053000",
          "113045.056000",
          "113045.058000",
          "113045.061000",
          "113045.064000",
          "113045.066000",
          "113045.069000",
          "113144.992000",
          "113144.995000",
          "113144.998000",
          "113145.002000",
          "113145.013000",
          "113145.016000",
          "113145.019000",
          "113145.022000",
          "113145.025000",
          "113145.028000",
          "113145.030000",
          "113145.033000",
          "113145.036000",
          "113145.039000",
          "113145.041000",
          "113145.050000",
          "113145.053000",
          "113145.056000",
          "113145.058000",
          "113145.061000",
          "113145.064000",
          "113145.066000",
          "113145.069000",
          "113145.072000",
          "113145.075000",
          "113244.991000",
          "113244.995000",
          "113244.997000",
          "113245.000000",
          "113245.002000",
          "113245.005000",
          "113245.008000",
          "113245.014000",
          "113245.017000",
          "113245.020000",
          "113245.022000",
          "113245.025000",
          "113245.027000",
          "113245.030000",
          "113245.033000",
          "113245.035000",
          "113245.038000",
          "113245.040000",
          "113245.043000",
          "113245.045000",
          "113245.048000",
          "113245.051000",
          "113245.054000",
          "113245.057000",
          "113245.059000",
          "113245.062000",
          "113344.991000",
          "113344.994000",
          "113344.996000",
          "113344.999000",
          "113345.002000",
          "113345.004000",
          "113345.007000",
          "113345.010000",
          "113345.012000",
          "113345.015000",
          "113345.017000",
          "113345.020000",
          "113345.023000",
          "113345.026000",
          "113345.028000",
          "113345.031000",
          "113345.034000",
          "113345.036000",
          "113345.045000",
          "113345.048000",
          "113345.122000",
          "113345.124000",
          "113345.127000",
          "113345.130000",
          "113345.132000",
          "113345.135000",
          "113442.992000",
          "113442.995000",
          "113442.998000",
          "113443.004000",
          "113443.009000",
          "113443.013000",
          "113443.018000",
          "113443.022000",
          "113443.026000",
          "113443.031000",
          "113443.034000",
          "113443.037000",
          "113443.040000",
          "113443.043000",
          "113443.046000",
          "113443.049000",
          "113443.051000",
          "113443.054000",
          "113443.058000",
          "113443.061000",
          "113443.064000",
          "113443.067000",
          "113443.070000",
          "113443.073000"
        ],
        "InstanceCreationTime": [
          "113044.997000",
          "113045.002000",
          "113045.005000",
          "113045.007000",
          "113045.010000",
          "113045.013000",
          "113045.016000",
          "113045.018000",
          "113045.021000",
          "113045.024000",
          "113045.027000",
          "113045.029000",
          "113045.032000",
          "113045.035000",
          "113045.037000",
          "113045.040000",
          "113045.043000",
          "113045.045000",
          "113045.048000",
          "113045.051000",
          "113045.053000",
          "113045.056000",
          "113045.058000",
          "113045.061000",
          "113045.064000",
          "113045.066000",
          "113045.069000",
          "113144.992000",
          "113144.995000",
          "113144.998000",
          "113145.002000",
          "113145.013000",
          "113145.016000",
          "113145.019000",
          "113145.022000",
          "113145.025000",
          "113145.028000",
          "113145.030000",
          "113145.033000",
          "113145.036000",
          "113145.039000",
          "113145.041000",
          "113145.050000",
          "113145.053000",
          "113145.056000",
          "113145.058000",
          "113145.061000",
          "113145.064000",
          "113145.066000",
          "113145.069000",
          "113145.072000",
          "113145.075000",
          "113244.991000",
          "113244.995000",
          "113244.997000",
          "113245.000000",
          "113245.002000",
          "113245.005000",
          "113245.008000",
          "113245.014000",
          "113245.017000",
          "113245.020000",
          "113245.022000",
          "113245.025000",
          "113245.027000",
          "113245.030000",
          "113245.033000",
          "113245.035000",
          "113245.038000",
          "113245.040000",
          "113245.043000",
          "113245.045000",
          "113245.048000",
          "113245.051000",
          "113245.054000",
          "113245.057000",
          "113245.059000",
          "113245.062000",
          "113344.991000",
          "113344.994000",
          "113344.996000",
          "113344.999000",
          "113345.002000",
          "113345.004000",
          "113345.007000",
          "113345.010000",
          "113345.012000",
          "113345.015000",
          "113345.017000",
          "113345.020000",
          "113345.023000",
          "113345.026000",
          "113345.028000",
          "113345.031000",
          "113345.034000",
          "113345.036000",
          "113345.045000",
          "113345.048000",
          "113345.122000",
          "113345.124000",
          "113345.127000",
          "113345.130000",
          "113345.132000",
          "113345.135000",
          "113442.992000",
          "113442.995000",
          "113442.998000",
          "113443.004000",
          "113443.009000",
          "113443.013000",
          "113443.018000",
          "113443.022000",
          "113443.026000",
          "113443.031000",
          "113443.034000",
          "113443.037000",
          "113443.040000",
          "113443.043000",
          "113443.046000",
          "113443.049000",
          "113443.051000",
          "113443.054000",
          "113443.058000",
          "113443.061000",
          "113443.064000",
          "113443.067000",
          "113443.070000",
          "113443.073000"
        ],
        "InstanceNumber": [
          1,
          2,
          3,
          4,
          5,
          6,
          7,
          8,
          9,
          10,
          11,
          12,
          13,
          14,
          15,
          16,
          17,
          18,
          19,
          20,
          21,
          22,
          23,
          24,
          25,
          26,
          27,
          28,
          29,
          30,
          31,
          32,
          33,
          34,
          35,
          36,
          37,
          38,
          39,
          40,
          41,
          42,
          43,
          44,
          45,
          46,
          47,
          48,
          49,
          50,
          51,
          52,
          53,
          54,
          55,
          56,
          57,
          58,
          59,
          60,
          61,
          62,
          63,
          64,
          65,
          66,
          67,
          68,
          69,
          70,
          71,
          72,
          73,
          74,
          75,
          76,
          77,
          78,
          79,
          80,
          81,
          82,
          83,
          84,
          85,
          86,
          87,
          88,
          89,
          90,
          91,
          92,
          93,
          94,
          95,
          96,
          97,
          98,
          99,
          100,
          101,
          102,
          103,
          104,
          105,
          106,
          107,
          108,
          109,
          110,
          111,
          112,
          113,
          114,
          115,
          116,
          117,
          118,
          119,
          120,
          121,
          122,
          123,
          124,
          125,
          126,
          127,
          128
        ],
        "LargestImagePixelValue": [
          2069,
          1988,
          2087,
          2447,
          2193,
          2053,
          2596,
          2160,
          2006,
          2021,
          2051,
          2048,
          2054,
          2090,
          2037,
          2479,
          2012,
          2025,
          2061,
          2067,
          2978,
          2215,
          1991,
          2172,
          2028,
          2119,
          2105,
          1999,
          2055,
          2026,
          2160,
          2341,
          2007,
          2130,
          2029,
          2228,
          2025,
          2199,
          1996,
          2130,
          2107,
          2118,
          2029,
          2079,
          2104,
          2229,
          2089,
          2004,
          2348,
          2060,
          2248,
          2068,
          2155,
          2106,
          2202,
          2010,
          2022,
          2109,
          2911,
          2249,
          2007,
          2264,
          2107,
          2331,
          2148,
          2295,
          2059,
          2223,
          2076,
          2030,
          2187,
          2221,
          2046,
          2015,
          2030,
          2123,
          2438,
          2290,
          2923,
          2013,
          2049,
          2063,
          2262,
          2062,
          2122,
          2031,
          2045,
          2111,
          2038,
          2008,
          2395,
          2619,
          1963,
          2230,
          2240,
          2107,
          2207,
          2112,
          2186,
          1988,
          2106,
          2109,
          2573,
          2073,
          2033,
          2861,
          2083,
          2207,
          2182,
          2004,
          2333,
          2039,
          2063,
          2258,
          2123,
          2043,
          2024,
          2115,
          2077,
          2368,
          2155,
          2122,
          2239,
          1891,
          2332,
          2297,
          2082,
          2227
        ],
        "WindowCenter": [
          882.0,
          879.0,
          878.0,
          878.0,
          877.0,
          873.0,
          873.0,
          873.0,
          873.0,
          875.0,
          874.0,
          874.0,
          875.0,
          875.0,
          876.0,
          878.0,
          878.0,
          876.0,
          877.0,
          877.0,
          875.0,
          872.0,
          870.0,
          873.0,
          874.0,
          875.0,
          875.0,
          875.0,
          876.0,
          879.0,
          876.0,
          877.0,
          877.0,
          879.0,
          877.0,
          877.0,
          875.0,
          875.0,
          876.0,
          875.0,
          876.0,
          875.0,
          875.0,
          877.0,
          877.0,
          875.0,
          877.0,
          875.0,
          877.0,
          878.0,
          877.0,
          876.0,
          876.0,
          877.0,
          877.0,
          879.0,
          878.0,
          878.0,
          877.0,
          875.0,
          876.0,
          878.0,
          878.0,
          876.0,
          877.0,
          877.0,
          876.0,
          878.0,
          876.0,
          876.0,
          879.0,
          877.0,
          875.0,
          876.0,
          876.0,
          883.0,
          879.0,
          878.0,
          871.0,
          874.0,
          872.0,
          874.0,
          874.0,
          873.0,
          872.0,
          878.0,
          877.0,
          880.0,
          880.0,
          880.0,
          879.0,
          881.0,
          870.0,
          880.0,
          875.0,
          874.0,
          874.0,
          878.0,
          883.0,
          877.0,
          880.0,
          878.0,
          873.0,
          882.0,
          876.0,
          878.0,
          873.0,
          877.0,
          874.0,
          877.0,
          876.0,
          879.0,
          878.0,
          879.0,
          881.0,
          878.0,
          876.0,
          877.0,
          877.0,
          877.0,
          876.0,
          877.0,
          878.0,
          877.0,
          880.0,
          876.0,
          873.0,
          875.0
        ],
        "WindowWidth": [
          1844.0,
          1832.0,
          1830.0,
          1832.0,
          1827.0,
          1819.0,
          1820.0,
          1818.0,
          1817.0,
          1821.0,
          1821.0,
          1821.0,
          1822.0,
          1824.0,
          1826.0,
          1831.0,
          1831.0,
          1825.0,
          1827.0,
          1827.0,
          1826.0,
          1816.0,
          1809.0,
          1819.0,
          1822.0,
          1823.0,
          1823.0,
          1823.0,
          1827.0,
          1833.0,
          1827.0,
          1830.0,
          1828.0,
          1834.0,
          1828.0,
          1828.0,
          1824.0,
          1825.0,
          1828.0,
          1825.0,
          1827.0,
          1823.0,
          1824.0,
          1828.0,
          1830.0,
          1825.0,
          1828.0,
          1823.0,
          1828.0,
          1832.0,
          1831.0,
          1826.0,
          1827.0,
          1830.0,
          1830.0,
          1833.0,
          1831.0,
          1831.0,
          1832.0,
          1825.0,
          1828.0,
          1830.0,
          1830.0,
          1826.0,
          1828.0,
          1828.0,
          1827.0,
          1832.0,
          1827.0,
          1828.0,
          1832.0,
          1829.0,
          1823.0,
          1828.0,
          1829.0,
          1842.0,
          1840.0,
          1831.0,
          1813.0,
          1819.0,
          1816.0,
          1822.0,
          1825.0,
          1817.0,
          1814.0,
          1833.0,
          1830.0,
          1836.0,
          1837.0,
          1838.0,
          1836.0,
          1839.0,
          1810.0,
          1837.0,
          1826.0,
          1819.0,
          1820.0,
          1833.0,
          1839.0,
          1831.0,
          1837.0,
          1827.0,
          1815.0,
          1841.0,
          1825.0,
          1831.0,
          1815.0,
          1831.0,
          1823.0,
          1827.0,
          1825.0,
          1836.0,
          1832.0,
          1833.0,
          1837.0,
          1832.0,
          1825.0,
          1830.0,
          1830.0,
          1829.0,
          1827.0,
          1830.0,
          1832.0,
          1816.0,
          1841.0,
          1828.0,
          1821.0,
          1824.0
        ]
      },
      "slices": {}
    }
  },
  "dummy_trs": 1,
  "dvars_nstd": 40.4893513333333,
  "dvars_std": 1.4332774086507942,
  "dvars_vstd": 1.145833803809524,
  "efc": 0.6211215130491169,
  "fber": 1614.3642578125,
  "fd_mean": 0.4860537771211309,
  "fd_num": 95,
  "fd_perc": 74.80314960629921,
  "fwhm_avg": 1.7454936442206488,
  "fwhm_x": 1.6797133333333332,
  "fwhm_y": 1.92551,
  "fwhm_z": 1.6312575993286131,
  "gcor": 0.0320949,
  "gsr_x": -0.00046535820001736283,
  "gsr_y": 0.03969435766339302,
  "provenance": {
    "md5sum": "9390e86ee63817a22943abb2f997fdf3",
    "settings": {
      "fd_thres": 0.2,
      "testing": false
    },
    "software": "mriqc",
    "version": "22.0.1",
    "webapi_port": null,
    "webapi_url": "https://mriqc.nimh.nih.gov/api/v1"
  },
  "size_t": 127,
  "size_x": 64,
  "size_y": 64,
  "size_z": 34,
  "snr": 6.298117202775337,
  "spacing_tr": 2.3399999141693115,
  "spacing_x": 3.0,
  "spacing_y": 3.0,
  "spacing_z": 3.299999952316284,
  "summary_bg_k": 35.13998989639166,
  "summary_bg_mad": 10.063016076030284,
  "summary_bg_mean": 37.496055603027344,
  "summary_bg_median": 23.149606704711914,
  "summary_bg_n": 62467.0,
  "summary_bg_p05": 12.425196647644043,
  "summary_bg_p95": 110.96693115234366,
  "summary_bg_stdv": 49.303199768066406,
  "summary_fg_k": 2.4269671173654173,
  "summary_fg_mad": 145.09657096181664,
  "summary_fg_mean": 970.252197265625,
  "summary_fg_median": 960.5275268554688,
  "summary_fg_n": 42801.0,
  "summary_fg_p05": 762.2125854492188,
  "summary_fg_p95": 1212.251953125,
  "summary_fg_stdv": 152.50848388671875,
  "tsnr": 47.19479675660841
}