{
  "aor": 0.005573858267716536,
  "aqi": 0.014958278110236218,
  "bids_meta": {
    "AcquisitionMatrixPE": 64,
    "AcquisitionNumber": 1,
    "AcquisitionTime": "11:19:34.722500",
    "BandwidthPerPixelPhaseEncode": 24.038,
    "BaseResolution": 64,
    "BodyPartExamined": "HEAD",
    "ConsistencyInfo": "N4_VD13A_LATEST_20120616",
    "ConversionSoftware": "dcm2niix",
    "ConversionSoftwareVersion": "v1.0.20181125  GCC6.3.0",
    "DerivedVendorReportedEchoSpacing": 0.000650012,
    "DeviceSerialNumber": "45250",
    "DwellTime": 4.6e-06,
    "EchoTime": 0.033,
    "EchoTrainLength": 64,
    "EffectiveEchoSpacing": 0.000650012,
    "FlipAngle": 90,
    "ImageOrientationPatientDICOM": [
      0.997926,
      -0.0129202,
      -0.0630538,
      0.00522524,
      0.992674,
      -0.120709
    ],
    "ImageType": [
      "ORIGINAL",
      "PRIMARY",
      "M",
      "ND",
      "NORM",
      "MOSAIC"
    ],
    "ImagingFrequency": 123.215,
    "InPlanePhaseEncodingDirectionDICOM": "COL",
    "InstitutionAddress": "Kopernikusstr._26_Graz_Graz_AT_8010",
    "InstitutionName": "KFU",
    "InstitutionalDepartmentName": "Department",
    "MRAcquisitionType": "2D",
    "MagneticFieldStrength": 3,
    "Manufacturer": "Siemens",
    "ManufacturersModelName": "Skyra",
    "Modality": "MR",
    "PartialFourier": 1,
    "PatientPosition": "HFS",
    "PercentPhaseFOV": 100,
    "PhaseEncodingDirection": "j-",
    "PhaseEncodingSteps": 64,
    "PhaseResolution": 1,
    "PixelBandwidth": 1700,
    "ProcedureStepDescription": "KFU_Entw-Psy",
    "ProtocolName": "fMRI_3",
    "PulseSequenceDetails": "%SiemensSeq%_ep2d_pace",
    "ReceiveCoilActiveElements": "HE1-4",
    "ReceiveCoilName": "HeadNeck_20",
    "ReconMatrixPE": 64,
    "RepetitionTime": 2.34,
    "SAR": 0.165872,
    "ScanOptions": "FS",
    "ScanningSequence": "EP",
    "SequenceName": "_epfid2d1_64",
    "SequenceVariant": "SK",
    "SeriesDescription": "fMRI_3",
    "SeriesNumber": 8,
    "ShimSetting": [
      -1617,
      -3682,
      -4419,
      354,
      490,
      -15,
      207,
      -306
    ],
    "SliceThickness": 3,
    "SliceTiming": [
      2.2525,
      2.1825,
      2.115,
      2.0475,
      1.98,
      1.91,
      1.8425,
      1.775,
      1.705,
      1.6375,
      1.57,
      1.5025,
      1.4325,
      1.365,
      1.2975,
      1.2275,
      1.16,
      1.0925,
      1.0225,
      0.955,
      0.8875,
      0.82,
      0.75,
      0.6825,
      0.615,
      0.545,
      0.4775,
      0.41,
      0.3425,
      0.2725,
      0.205,
      0.1375,
      0.0675,
      0
    ],
    "SoftwareVersions": "syngo_MR_D13",
    "SpacingBetweenSlices": 3.3,
    "StationName": "FBMTMR1",
    "TaskName": "read",
    "TotalReadoutTime": 0.0409508,
    "TxRefAmp": 339.233,
    "dataset": "ds003126",
    "dcmmeta_affine": [
      [
        -2.993779420852661,
        0.015675721690058708,
        -0.2116997241973877,
        91.73323822021484
      ],
      [
        0.038760628551244736,
        2.978022575378418,
        -0.396426260471344,
        -106.95286560058594
      ],
      [
        -0.1891613006591797,
        0.36212679743766785,
        3.2692551612854004,
        -35.61956024169922
      ],
      [
        0.0,
        0.0,
        0.0,
        1.0
      ]
    ],
    "dcmmeta_reorient_transform": [
      [
        0.0,
        -1.0,
        0.0,
        63.0
      ],
      [
        1.0,
        0.0,
        0.0,
        0.0
      ],
      [
        0.0,
        0.0,
        1.0,
        0.0
      ],
      [
        0.0,
        0.0,
        0.0,
        1.0
      ]
    ],
    "dcmmeta_shape": [
      64,
      64,
      34,
      127
    ],
    "dcmmeta_slice_dim": 2,
    "dcmmeta_version": 0.6,
    "global": {
      "const": {
        "AcquisitionMatrix": [
          64,
          0,
          0,
          64
        ],
        "AngioFlag": "N",
        "BitsAllocated": 16,
        "BitsStored": 12,
        "BodyPartExamined": "HEAD",
        "Columns": 384,
        "EchoNumbers": 1,
        "EchoTime": 33.0,
        "EchoTrainLength": 64,
        "FlipAngle": 90.0,
        "HighBit": 11,
        "ImageOrientationPatient": [
          0.99792649575826,
          -0.0129202097905,
          -0.0630537646981,
          0.00522524074129,
          0.99267419150454,
          -0.1207089324781
        ],
        "ImagePositionPatient": [
          -574.23364553929,
          -550.94446412157,
          75.400520970967
        ],
        "ImageType": [
          "ORIGINAL",
          "PRIMARY",
          "M",
          "ND",
          "NORM",
          "MOSAIC"
        ],
        "ImagedNucleus": "1H",
        "ImagingFrequency": 123.214574,
        "InPlanePhaseEncodingDirection": "COL",
        "MRAcquisitionType": "2D",
        "MagneticFieldStrength": 3.0,
        "Manufacturer": "SIEMENS",
        "ManufacturerModelName": "Skyra",
        "Modality": "MR",
        "NumberOfAverages": 1.0,
        "NumberOfPhaseEncodingSteps": 64,
        "PercentPhaseFieldOfView": 100.0,
        "PercentSampling": 100.0,
        "PerformedProcedureStepStartTime": "110248.734000",
        "PhotometricInterpretation": "MONOCHROME2",
        "PixelBandwidth": 1700.0,
        "PixelRepresentation": 0,
        "PixelSpacing": [
          3.0,
          3.0
        ],
        "ProtocolName": "fMRI_3",
        "RepetitionTime": 2340.0,
        "Rows": 384,
        "SAR": 0.16587170712594,
        "SamplesPerPixel": 1,
        "ScanOptions": "FS",
        "ScanningSequence": "EP",
        "SequenceName": "*epfid2d1_64",
        "SequenceVariant": "SK",
        "SeriesDescription": "fMRI_3",
        "SeriesNumber": 8,
        "SeriesTime": "112025.127000",
        "SliceLocation": -28.324367368429,
        "SliceThickness": 3.0,
        "SmallestImagePixelValue": 0,
        "SoftwareVersions": "syngo MR D13",
        "SpacingBetweenSlices": 3.3000000161522,
        "SpecificCharacterSet": "ISO_IR 100",
        "StudyID": "1",
        "StudyTime": "110248.685000",
        "TransmitCoilName": "Body",
        "VariableFlipAngleFlag": "N",
        "WindowCenterWidthExplanation": "Algo1",
        "dBdt": 0.0
      },
      "slices": {}
    },
    "modality": "bold",
    "run_id": 3,
    "session_id": "2",
    "subject_id": "047EPKL014010",
    "task_id": "read",
    "time": {
      "samples": {
        "AcquisitionNumber": [
          1,
          2,
          3,
          4,
          5,
          6,
          7,
          8,
          9,
          10,
          11,
          12,
          13,
          14,
          15,
          16,
          17,
          18,
          19,
          20,
          21,
          22,
          23,
          24,
          25,
          26,
          27,
          28,
          29,
          30,
          31,
          32,
          33,
          34,
          35,
          36,
          37,
          38,
          39,
          40,
          41,
          42,
          43,
          44,
          45,
          46,
          47,
          48,
          49,
          50,
          51,
          52,
          53,
          54,
          55,
          56,
          57,
          58,
          59,
          60,
          61,
          62,
          63,
          64,
          65,
          66,
          67,
          68,
          69,
          70,
          71,
          72,
          73,
          74,
          75,
          76,
          77,
          78,
          79,
          80,
          81,
          82,
          83,
          84,
          85,
          86,
          87,
          88,
          89,
          90,
          91,
          92,
          93,
          94,
          95,
          96,
          97,
          98,
          99,
          100,
          101,
          102,
          103,
          104,
          105,
          106,
          107,
          108,
          109,
          110,
          111,
          112,
          113,
          114,
          115,
          116,
          117,
          118,
          119,
          120,
          121,
          122,
          123,
          124,
          125,
          126,
          127
        ],
        "AcquisitionTime": [
          "111934.722500",
          "111937.062500",
          "111939.402500",
          "111941.742500",
          "111944.082500",
          "111946.422500",
          "111948.762500",
          "111951.102500",
          "111953.442500",
          "111955.782500",
          "111958.122500",
          "112000.462500",
          "112002.802500",
          "112005.142500",
          "112007.482500",
          "112009.822500",
          "112012.162500",
          "112014.502500",
          "112016.842500",
          "112019.182500",
          "112021.522500",
          "112023.862500",
          "112026.202500",
          "112028.542500",
          "112030.882500",
          "112033.222500",
          "112035.562500",
          "112037.902500",
          "112040.242500",
          "112042.582500",
          "112044.922500",
          "112047.262500",
          "112049.602500",
          "112051.942500",
          "112054.282500",
          "112056.622500",
          "112058.962500",
          "112101.302500",
          "112103.642500",
          "112105.982500",
          "112108.322500",
          "112110.662500",
          "112113.002500",
          "112115.342500",
          "112117.682500",
          "112120.022500",
          "112122.362500",
          "112124.702500",
          "112127.042500",
          "112129.382500",
          "112131.722500",
          "112134.062500",
          "112136.402500",
          "112138.742500",
          "112141.082500",
          "112143.422500",
          "112145.762500",
          "112148.102500",
          "112150.442500",
          "112152.782500",
          "112155.122500",
          "112157.462500",
          "112159.802500",
          "112202.142500",
          "112204.482500",
          "112206.822500",
          "112209.162500",
          "112211.502500",
          "112213.842500",
          "112216.182500",
          "112218.522500",
          "112220.862500",
          "112223.202500",
          "112225.542500",
          "112227.882500",
          "112230.222500",
          "112232.562500",
          "112234.902500",
          "112237.242500",
          "112239.582500",
          "112241.922500",
          "112244.262500",
          "112246.602500",
          "112248.942500",
          "112251.282500",
          "112253.622500",
          "112255.962500",
          "112258.302500",
          "112300.642500",
          "112302.982500",
          "112305.322500",
          "112307.662500",
          "112310.002500",
          "112312.342500",
          "112314.682500",
          "112317.022500",
          "112319.362500",
          "112321.702500",
          "112324.042500",
          "112326.382500",
          "112328.722500",
          "112331.062500",
          "112333.402500",
          "112335.742500",
          "112338.082500",
          "112340.422500",
          "112342.762500",
          "112345.102500",
          "112347.442500",
          "112349.782500",
          "112352.122500",
          "112354.462500",
          "112356.802500",
          "112359.142500",
          "112401.482500",
          "112403.822500",
          "112406.162500",
          "112408.502500",
          "112410.842500",
          "112413.182500",
          "112415.522500",
          "112417.862500",
          "112420.202500",
          "112422.542500",
          "112424.882500",
          "112427.222500",
          "112429.562500"
        ],
        "ContentTime": [
          "112025.131000",
          "112025.135000",
          "112025.138000",
          "112025.141000",
          "112025.143000",
          "112025.152000",
          "112025.155000",
          "112025.158000",
          "112025.160000",
          "112025.163000",
          "112025.166000",
          "112025.168000",
          "112025.171000",
          "112025.174000",
          "112025.177000",
          "112025.179000",
          "112025.182000",
          "112025.185000",
          "112025.187000",
          "112025.190000",
          "112025.193000",
          "112025.196000",
          "112125.123000",
          "112125.127000",
          "112125.129000",
          "112125.132000",
          "112125.135000",
          "112125.138000",
          "112125.141000",
          "112125.144000",
          "112125.146000",
          "112125.149000",
          "112125.151000",
          "112125.154000",
          "112125.157000",
          "112125.159000",
          "112125.162000",
          "112125.165000",
          "112125.168000",
          "112125.170000",
          "112125.173000",
          "112125.176000",
          "112125.179000",
          "112125.181000",
          "112125.184000",
          "112125.186000",
          "112125.189000",
          "112225.124000",
          "112225.128000",
          "112225.131000",
          "112225.134000",
          "112225.137000",
          "112225.139000",
          "112225.142000",
          "112225.146000",
          "112225.149000",
          "112225.151000",
          "112225.154000",
          "112225.157000",
          "112225.159000",
          "112225.162000",
          "112225.165000",
          "112225.167000",
          "112225.170000",
          "112225.173000",
          "112225.175000",
          "112225.178000",
          "112225.181000",
          "112225.183000",
          "112225.186000",
          "112225.189000",
          "112225.192000",
          "112225.195000",
          "112325.125000",
          "112325.128000",
          "112325.131000",
          "112325.134000",
          "112325.136000",
          "112325.139000",
          "112325.142000",
          "112325.145000",
          "112325.147000",
          "112325.150000",
          "112325.153000",
          "112325.156000",
          "112325.159000",
          "112325.162000",
          "112325.165000",
          "112325.168000",
          "112325.171000",
          "112325.173000",
          "112325.176000",
          "112325.179000",
          "112325.181000",
          "112325.184000",
          "112325.187000",
          "112325.189000",
          "112325.192000",
          "112325.195000",
          "112425.125000",
          "112425.129000",
          "112425.132000",
          "112425.134000",
          "112425.137000",
          "112425.140000",
          "112425.143000",
          "112425.146000",
          "112425.149000",
          "112425.152000",
          "112425.154000",
          "112425.157000",
          "112425.160000",
          "112425.163000",
          "112425.166000",
          "112425.169000",
          "112425.171000",
          "112425.174000",
          "112425.177000",
          "112425.180000",
          "112425.182000",
          "112425.185000",
          "112425.188000",
          "112425.191000",
          "112425.193000",
          "112430.933000",
          "112430.936000",
          "112430.939000"
        ],
        "InstanceCreationTime": [
          "112025.131000",
          "112025.135000",
          "112025.138000",
          "112025.141000",
          "112025.143000",
          "112025.152000",
          "112025.155000",
          "112025.158000",
          "112025.160000",
          "112025.163000",
          "112025.166000",
          "112025.168000",
          "112025.171000",
          "112025.174000",
          "112025.177000",
          "112025.179000",
          "112025.182000",
          "112025.185000",
          "112025.187000",
          "112025.190000",
          "112025.193000",
          "112025.196000",
          "112125.123000",
          "112125.127000",
          "112125.129000",
          "112125.132000",
          "112125.135000",
          "112125.138000",
          "112125.141000",
          "112125.144000",
          "112125.146000",
          "112125.149000",
          "112125.151000",
          "112125.154000",
          "112125.157000",
          "112125.159000",
          "112125.162000",
          "112125.165000",
          "112125.168000",
          "112125.170000",
          "112125.173000",
          "112125.176000",
          "112125.179000",
          "112125.181000",
          "112125.184000",
          "112125.186000",
          "112125.189000",
          "112225.124000",
          "112225.128000",
          "112225.131000",
          "112225.134000",
          "112225.137000",
          "112225.139000",
          "112225.142000",
          "112225.146000",
          "112225.149000",
          "112225.151000",
          "112225.154000",
          "112225.157000",
          "112225.159000",
          "112225.162000",
          "112225.165000",
          "112225.167000",
          "112225.170000",
          "112225.173000",
          "112225.175000",
          "112225.178000",
          "112225.181000",
          "112225.183000",
          "112225.186000",
          "112225.189000",
          "112225.192000",
          "112225.195000",
          "112325.125000",
          "112325.128000",
          "112325.131000",
          "112325.134000",
          "112325.136000",
          "112325.139000",
          "112325.142000",
          "112325.145000",
          "112325.147000",
          "112325.150000",
          "112325.153000",
          "112325.156000",
          "112325.159000",
          "112325.162000",
          "112325.165000",
          "112325.168000",
          "112325.171000",
          "112325.173000",
          "112325.176000",
          "112325.179000",
          "112325.181000",
          "112325.184000",
          "112325.187000",
          "112325.189000",
          "112325.192000",
          "112325.195000",
          "112425.125000",
          "112425.129000",
          "112425.132000",
          "112425.134000",
          "112425.137000",
          "112425.140000",
          "112425.143000",
          "112425.146000",
          "112425.149000",
          "112425.152000",
          "112425.154000",
          "112425.157000",
          "112425.160000",
          "112425.163000",
          "112425.166000",
          "112425.169000",
          "112425.171000",
          "112425.174000",
          "112425.177000",
          "112425.180000",
          "112425.182000",
          "112425.185000",
          "112425.188000",
          "112425.191000",
          "112425.193000",
          "112430.933000",
          "112430.936000",
          "112430.939000"
        ],
        "InstanceNumber": [
          1,
          2,
          3,
          4,
          5,
          6,
          7,
          8,
          9,
          10,
          11,
          12,
          13,
          14,
          15,
          16,
          17,
          18,
          19,
          20,
          21,
          22,
          23,
          24,
          25,
          26,
          27,
          28,
          29,
          30,
          31,
          32,
          33,
          34,
          35,
          36,
          37,
          38,
          39,
          40,
          41,
          42,
          43,
          44,
          45,
          46,
          47,
          48,
          49,
          50,
          51,
          52,
          53,
          54,
          55,
          56,
          57,
          58,
          59,
          60,
          61,
          62,
          63,
          64,
          65,
          66,
          67,
          68,
          69,
          70,
          71,
          72,
          73,
          74,
          75,
          76,
          77,
          78,
          79,
          80,
          81,
          82,
          83,
          84,
          85,
          86,
          87,
          88,
          89,
          90,
          91,
          92,
          93,
          94,
          95,
          96,
          97,
          98,
          99,
          100,
          101,
          102,
          103,
          104,
          105,
          106,
          107,
          108,
          109,
          110,
          111,
          112,
          113,
          114,
          115,
          116,
          117,
          118,
          119,
          120,
          121,
          122,
          123,
          124,
          125,
          126,
          127
        ],
        "LargestImagePixelValue": [
          1853,
          1947,
          1765,
          1818,
          1765,
          1668,
          1880,
          2282,
          1648,
          1672,
          1903,
          1705,
          1688,
          1651,
          1864,
          1658,
          1676,
          1682,
          1943,
          1672,
          1679,
          2020,
          1691,
          1913,
          1697,
          1881,
          1800,
          1709,
          1704,
          1766,
          2093,
          1812,
          1662,
          1686,
          1814,
          1644,
          1990,
          1672,
          1629,
          1664,
          1830,
          1593,
          1984,
          2027,
          1652,
          1740,
          1701,
          1814,
          1694,
          1703,
          1930,
          1611,
          1886,
          1920,
          1978,
          1656,
          1739,
          1988,
          1668,
          1966,
          1927,
          1651,
          1671,
          1676,
          1599,
          1833,
          1782,
          1683,
          1910,
          2032,
          1652,
          1617,
          1859,
          1666,
          1739,
          1608,
          1660,
          1744,
          1866,
          1808,
          1651,
          1734,
          1807,
          1764,
          1820,
          1631,
          2076,
          1682,
          1981,
          1696,
          1789,
          1684,
          1697,
          1936,
          1669,
          1777,
          1789,
          1639,
          1626,
          1716,
          1966,
          1764,
          1677,
          1675,
          1842,
          1649,
          2027,
          1930,
          1663,
          1663,
          1862,
          1971,
          1673,
          1903,
          1660,
          1689,
          1683,
          1835,
          1645,
          1695,
          1721,
          1639,
          1726,
          1998,
          1616,
          1812,
          1938
        ],
        "WindowCenter": [
          781.0,
          779.0,
          779.0,
          780.0,
          782.0,
          780.0,
          780.0,
          781.0,
          780.0,
          781.0,
          780.0,
          781.0,
          779.0,
          779.0,
          780.0,
          779.0,
          778.0,
          779.0,
          782.0,
          781.0,
          780.0,
          782.0,
          781.0,
          781.0,
          780.0,
          781.0,
          780.0,
          781.0,
          779.0,
          782.0,
          782.0,
          782.0,
          779.0,
          781.0,
          781.0,
          779.0,
          780.0,
          783.0,
          780.0,
          782.0,
          781.0,
          781.0,
          783.0,
          784.0,
          779.0,
          781.0,
          784.0,
          783.0,
          782.0,
          784.0,
          781.0,
          782.0,
          782.0,
          781.0,
          781.0,
          783.0,
          782.0,
          782.0,
          781.0,
          782.0,
          780.0,
          782.0,
          780.0,
          786.0,
          783.0,
          783.0,
          782.0,
          782.0,
          782.0,
          782.0,
          783.0,
          784.0,
          784.0,
          785.0,
          783.0,
          783.0,
          784.0,
          783.0,
          785.0,
          784.0,
          784.0,
          785.0,
          783.0,
          784.0,
          783.0,
          784.0,
          785.0,
          783.0,
          783.0,
          785.0,
          784.0,
          788.0,
          785.0,
          784.0,
          783.0,
          786.0,
          783.0,
          783.0,
          784.0,
          785.0,
          785.0,
          784.0,
          783.0,
          784.0,
          785.0,
          786.0,
          784.0,
          785.0,
          782.0,
          786.0,
          783.0,
          784.0,
          780.0,
          782.0,
          781.0,
          782.0,
          783.0,
          784.0,
          783.0,
          784.0,
          783.0,
          784.0,
          784.0,
          787.0,
          784.0,
          785.0,
          784.0
        ],
        "WindowWidth": [
          1639.0,
          1636.0,
          1635.0,
          1637.0,
          1640.0,
          1639.0,
          1638.0,
          1640.0,
          1636.0,
          1641.0,
          1639.0,
          1640.0,
          1633.0,
          1636.0,
          1638.0,
          1634.0,
          1632.0,
          1634.0,
          1641.0,
          1638.0,
          1637.0,
          1643.0,
          1638.0,
          1640.0,
          1638.0,
          1640.0,
          1638.0,
          1638.0,
          1636.0,
          1641.0,
          1644.0,
          1640.0,
          1636.0,
          1639.0,
          1640.0,
          1636.0,
          1640.0,
          1643.0,
          1637.0,
          1644.0,
          1641.0,
          1640.0,
          1646.0,
          1645.0,
          1634.0,
          1642.0,
          1645.0,
          1645.0,
          1641.0,
          1646.0,
          1641.0,
          1641.0,
          1643.0,
          1640.0,
          1640.0,
          1643.0,
          1642.0,
          1642.0,
          1641.0,
          1642.0,
          1638.0,
          1641.0,
          1638.0,
          1653.0,
          1644.0,
          1645.0,
          1642.0,
          1642.0,
          1643.0,
          1644.0,
          1642.0,
          1647.0,
          1649.0,
          1647.0,
          1644.0,
          1644.0,
          1648.0,
          1646.0,
          1649.0,
          1647.0,
          1647.0,
          1648.0,
          1646.0,
          1646.0,
          1645.0,
          1646.0,
          1651.0,
          1643.0,
          1645.0,
          1648.0,
          1645.0,
          1658.0,
          1650.0,
          1647.0,
          1647.0,
          1650.0,
          1644.0,
          1644.0,
          1648.0,
          1649.0,
          1649.0,
          1647.0,
          1645.0,
          1646.0,
          1648.0,
          1652.0,
          1648.0,
          1649.0,
          1643.0,
          1651.0,
          1646.0,
          1645.0,
          1636.0,
          1644.0,
          1639.0,
          1641.0,
          1645.0,
          1648.0,
          1646.0,
          1646.0,
          1645.0,
          1647.0,
          1648.0,
          1655.0,
          1647.0,
          1648.0,
          1648.0
        ]
      },
      "slices": {}
    }
  },
  "dummy_trs": 0,
  "dvars_nstd": 38.79420981333334,
  "dvars_std": 1.3276611546031754,
  "dvars_vstd": 1.0595639342857144,
  "efc": 0.5824007731757529,
  "fber": 1445.2779541015625,
  "fd_mean": 0.5122220798579735,
  "fd_num": 105,
  "fd_perc": 82.67716535433071,
  "fwhm_avg": 1.6157443506251266,
  "fwhm_x": 1.52304,
  "fwhm_y": 1.8312566666666665,
  "fwhm_z": 1.4929363852087134,
  "gcor": 0.0423045,
  "gsr_x": -0.01270943135023117,
  "gsr_y": 0.04727554693818092,
  "provenance": {
    "md5sum": "e6785548ab436f1d86205d953a5ec8d5",
    "settings": {
      "fd_thres": 0.2,
      "testing": false
    },
    "software": "mriqc",
    "version": "22.0.1",
    "webapi_port": null,
    "webapi_url": "https://mriqc.nimh.nih.gov/api/v1"
  },
  "size_t": 127,
  "size_x": 64,
  "size_y": 64,
  "size_z": 34,
  "snr": 7.31535478352392,
  "spacing_tr": 2.3399999141693115,
  "spacing_x": 3.0,
  "spacing_y": 3.0,
  "spacing_z": 3.299999952316284,
  "summary_bg_k": 41.66647920833349,
  "summary_bg_mad": 8.685479399414554,
  "summary_bg_mean": 37.28178787231445,
  "summary_bg_median": 22.755905151367188,
  "summary_bg_n": 71234.0,
  "summary_bg_p05": 12.889763832092285,
  "summary_bg_p95": 102.7251983642574,
  "summary_bg_stdv": 53.397789001464844,
  "summary_fg_k": 3.0117678838288455,
  "summary_fg_mad": 116.77537564123841,
  "summary_fg_mean": 882.8260498046875,
  "summary_fg_median": 884.1456298828125,
  "summary_fg_n": 35164.0,
  "summary_fg_p05": 704.7874145507812,
  "summary_fg_p95": 1062.8625549316405,
  "summary_fg_stdv": 120.85990142822266,
  "tsnr": 55.36731543997303
}