{
  "aor": 0.00526448818897638,
  "aqi": 0.013358762204724409,
  "bids_meta": {
    "AcquisitionMatrixPE": 64,
    "AcquisitionNumber": 1,
    "AcquisitionTime": "12:05:58.550000",
    "BandwidthPerPixelPhaseEncode": 24.038,
    "BaseResolution": 64,
    "BodyPartExamined": "HEAD",
    "ConsistencyInfo": "N4_VD13A_LATEST_20120616",
    "ConversionSoftware": "dcm2niix",
    "ConversionSoftwareVersion": "v1.0.20181125  GCC6.3.0",
    "DerivedVendorReportedEchoSpacing": 0.000650012,
    "DeviceSerialNumber": "45250",
    "DwellTime": 4.6e-06,
    "EchoTime": 0.033,
    "EchoTrainLength": 64,
    "EffectiveEchoSpacing": 0.000650012,
    "FlipAngle": 90,
    "ImageOrientationPatientDICOM": [
      0.999668,
      -0.0247804,
      -0.00705532,
      0.0226856,
      0.976361,
      -0.214952
    ],
    "ImageType": [
      "ORIGINAL",
      "PRIMARY",
      "M",
      "ND",
      "NORM",
      "MOSAIC"
    ],
    "ImagingFrequency": 123.214,
    "InPlanePhaseEncodingDirectionDICOM": "COL",
    "InstitutionAddress": "Kopernikusstr._26_Graz_Graz_AT_8010",
    "InstitutionName": "KFU",
    "InstitutionalDepartmentName": "Department",
    "MRAcquisitionType": "2D",
    "MagneticFieldStrength": 3,
    "Manufacturer": "Siemens",
    "ManufacturersModelName": "Skyra",
    "Modality": "MR",
    "PartialFourier": 1,
    "PatientPosition": "HFS",
    "PercentPhaseFOV": 100,
    "PhaseEncodingDirection": "j-",
    "PhaseEncodingSteps": 64,
    "PhaseResolution": 1,
    "PixelBandwidth": 1700,
    "ProcedureStepDescription": "KFU_Entw-Psy",
    "ProtocolName": "fMRI_3",
    "PulseSequenceDetails": "%SiemensSeq%_ep2d_pace",
    "ReceiveCoilActiveElements": "HE1-4",
    "ReceiveCoilName": "HeadNeck_20",
    "ReconMatrixPE": 64,
    "RepetitionTime": 2.34,
    "SAR": 0.189338,
    "ScanOptions": "FS",
    "ScanningSequence": "EP",
    "SequenceName": "_epfid2d1_64",
    "SequenceVariant": "SK",
    "SeriesDescription": "fMRI_3",
    "SeriesNumber": 8,
    "ShimSetting": [
      -1606,
      -3700,
      -4270,
      512,
      284,
      333,
      428,
      -214
    ],
    "SliceThickness": 3,
    "SliceTiming": [
      2.25,
      2.1825,
      2.115,
      2.045,
      1.9775,
      1.91,
      1.8425,
      1.7725,
      1.705,
      1.6375,
      1.5675,
      1.5,
      1.4325,
      1.3625,
      1.295,
      1.2275,
      1.16,
      1.09,
      1.0225,
      0.955,
      0.885,
      0.8175,
      0.75,
      0.6825,
      0.6125,
      0.545,
      0.4775,
      0.4075,
      0.34,
      0.2725,
      0.205,
      0.135,
      0.0675,
      0
    ],
    "SoftwareVersions": "syngo_MR_D13",
    "SpacingBetweenSlices": 3.3,
    "StationName": "FBMTMR1",
    "TaskName": "read",
    "TotalReadoutTime": 0.0409508,
    "TxRefAmp": 390.623,
    "dataset": "ds003126",
    "dcmmeta_affine": [
      [
        -2.9990041255950928,
        0.06805692613124847,
        -0.04030996561050415,
        93.97261810302734
      ],
      [
        0.07434134185314178,
        2.9290833473205566,
        -0.7085778713226318,
        -110.06099700927734
      ],
      [
        -0.021165946498513222,
        0.6448559761047363,
        3.2227771282196045,
        -22.703311920166016
      ],
      [
        0.0,
        0.0,
        0.0,
        1.0
      ]
    ],
    "dcmmeta_reorient_transform": [
      [
        0.0,
        -1.0,
        0.0,
        63.0
      ],
      [
        1.0,
        0.0,
        0.0,
        0.0
      ],
      [
        0.0,
        0.0,
        1.0,
        0.0
      ],
      [
        0.0,
        0.0,
        0.0,
        1.0
      ]
    ],
    "dcmmeta_shape": [
      64,
      64,
      34,
      127
    ],
    "dcmmeta_slice_dim": 2,
    "dcmmeta_version": 0.6,
    "global": {
      "const": {
        "AcquisitionMatrix": [
          64,
          0,
          0,
          64
        ],
        "AngioFlag": "N",
        "BitsAllocated": 16,
        "BitsStored": 12,
        "BodyPartExamined": "HEAD",
        "Columns": 384,
        "EchoNumbers": 1,
        "EchoTime": 33.0,
        "EchoTrainLength": 64,
        "FlipAngle": 90.0,
        "HighBit": 11,
        "ImageOrientationPatient": [
          0.9996680208484,
          -0.0247804483285,
          -0.0070553152785,
          0.02268564299178,
          0.97636110352811,
          -0.2149519879401
        ],
        "ImagePositionPatient": [
          -588.9899650403,
          -531.22996232357,
          124.4861202415
        ],
        "ImageType": [
          "ORIGINAL",
          "PRIMARY",
          "M",
          "ND",
          "NORM",
          "MOSAIC"
        ],
        "ImagedNucleus": "1H",
        "ImagingFrequency": 123.214257,
        "InPlanePhaseEncodingDirection": "COL",
        "MRAcquisitionType": "2D",
        "MagneticFieldStrength": 3.0,
        "Manufacturer": "SIEMENS",
        "ManufacturerModelName": "Skyra",
        "Modality": "MR",
        "NumberOfAverages": 1.0,
        "NumberOfPhaseEncodingSteps": 64,
        "PercentPhaseFieldOfView": 100.0,
        "PercentSampling": 100.0,
        "PerformedProcedureStepStartTime": "113607.240000",
        "PhotometricInterpretation": "MONOCHROME2",
        "PixelBandwidth": 1700.0,
        "PixelRepresentation": 0,
        "PixelSpacing": [
          3.0,
          3.0
        ],
        "ProtocolName": "fMRI_3",
        "RepetitionTime": 2340.0,
        "Rows": 384,
        "SAR": 0.18933758330215,
        "SamplesPerPixel": 1,
        "ScanOptions": "FS",
        "ScanningSequence": "EP",
        "SequenceName": "*epfid2d1_64",
        "SequenceVariant": "SK",
        "SeriesDescription": "fMRI_3",
        "SeriesNumber": 8,
        "SeriesTime": "120702.945000",
        "SliceLocation": 0.31243850495563,
        "SliceThickness": 3.0,
        "SmallestImagePixelValue": 0,
        "SoftwareVersions": "syngo MR D13",
        "SpacingBetweenSlices": 3.2999998892825,
        "SpecificCharacterSet": "ISO_IR 100",
        "StudyID": "1",
        "StudyTime": "113607.190000",
        "TransmitCoilName": "Body",
        "VariableFlipAngleFlag": "N",
        "WindowCenterWidthExplanation": "Algo1",
        "dBdt": 0.0
      },
      "slices": {}
    },
    "modality": "bold",
    "run_id": 3,
    "session_id": "2",
    "subject_id": "047EPKL013035",
    "task_id": "read",
    "time": {
      "samples": {
        "AcquisitionNumber": [
          1,
          2,
          3,
          4,
          5,
          6,
          7,
          8,
          9,
          10,
          11,
          12,
          13,
          14,
          15,
          16,
          17,
          18,
          19,
          20,
          21,
          22,
          23,
          24,
          25,
          26,
          27,
          28,
          29,
          30,
          31,
          32,
          33,
          34,
          35,
          36,
          37,
          38,
          39,
          40,
          41,
          42,
          43,
          44,
          45,
          46,
          47,
          48,
          49,
          50,
          51,
          52,
          53,
          54,
          55,
          56,
          57,
          58,
          59,
          60,
          61,
          62,
          63,
          64,
          65,
          66,
          67,
          68,
          69,
          70,
          71,
          72,
          73,
          74,
          75,
          76,
          77,
          78,
          79,
          80,
          81,
          82,
          83,
          84,
          85,
          86,
          87,
          88,
          89,
          90,
          91,
          92,
          93,
          94,
          95,
          96,
          97,
          98,
          99,
          100,
          101,
          102,
          103,
          104,
          105,
          106,
          107,
          108,
          109,
          110,
          111,
          112,
          113,
          114,
          115,
          116,
          117,
          118,
          119,
          120,
          121,
          122,
          123,
          124,
          125,
          126,
          127
        ],
        "AcquisitionTime": [
          "120558.550000",
          "120600.890000",
          "120603.230000",
          "120605.570000",
          "120607.910000",
          "120610.250000",
          "120612.590000",
          "120614.930000",
          "120617.270000",
          "120619.610000",
          "120621.950000",
          "120624.290000",
          "120626.630000",
          "120628.970000",
          "120631.310000",
          "120633.650000",
          "120635.990000",
          "120638.330000",
          "120640.670000",
          "120643.010000",
          "120645.350000",
          "120647.690000",
          "120650.030000",
          "120652.370000",
          "120654.710000",
          "120657.050000",
          "120659.390000",
          "120701.730000",
          "120704.070000",
          "120706.410000",
          "120708.750000",
          "120711.090000",
          "120713.430000",
          "120715.770000",
          "120718.110000",
          "120720.450000",
          "120722.790000",
          "120725.130000",
          "120727.470000",
          "120729.810000",
          "120732.150000",
          "120734.490000",
          "120736.830000",
          "120739.170000",
          "120741.510000",
          "120743.850000",
          "120746.190000",
          "120748.530000",
          "120750.870000",
          "120753.210000",
          "120755.550000",
          "120757.890000",
          "120800.230000",
          "120802.570000",
          "120804.910000",
          "120807.250000",
          "120809.590000",
          "120811.930000",
          "120814.270000",
          "120816.610000",
          "120818.950000",
          "120821.290000",
          "120823.630000",
          "120825.970000",
          "120828.310000",
          "120830.650000",
          "120832.990000",
          "120835.330000",
          "120837.670000",
          "120840.010000",
          "120842.350000",
          "120844.690000",
          "120847.030000",
          "120849.370000",
          "120851.710000",
          "120854.050000",
          "120856.390000",
          "120858.730000",
          "120901.070000",
          "120903.410000",
          "120905.750000",
          "120908.090000",
          "120910.430000",
          "120912.770000",
          "120915.110000",
          "120917.450000",
          "120919.790000",
          "120922.130000",
          "120924.470000",
          "120926.810000",
          "120929.150000",
          "120931.490000",
          "120933.830000",
          "120936.170000",
          "120938.510000",
          "120940.850000",
          "120943.190000",
          "120945.530000",
          "120947.870000",
          "120950.210000",
          "120952.550000",
          "120954.890000",
          "120957.230000",
          "120959.570000",
          "121001.910000",
          "121004.250000",
          "121006.590000",
          "121008.930000",
          "121011.270000",
          "121013.610000",
          "121015.950000",
          "121018.290000",
          "121020.630000",
          "121022.970000",
          "121025.310000",
          "121027.650000",
          "121029.990000",
          "121032.330000",
          "121034.670000",
          "121037.010000",
          "121039.350000",
          "121041.690000",
          "121044.030000",
          "121046.370000",
          "121048.710000",
          "121051.050000",
          "121053.390000"
        ],
        "ContentTime": [
          "120702.949000",
          "120702.953000",
          "120702.955000",
          "120702.958000",
          "120702.961000",
          "120702.964000",
          "120702.967000",
          "120702.969000",
          "120702.973000",
          "120702.975000",
          "120702.978000",
          "120702.981000",
          "120702.984000",
          "120702.987000",
          "120702.990000",
          "120702.993000",
          "120702.996000",
          "120703.000000",
          "120703.002000",
          "120703.006000",
          "120703.009000",
          "120703.012000",
          "120703.016000",
          "120703.019000",
          "120703.022000",
          "120703.025000",
          "120703.028000",
          "120703.031000",
          "120742.944000",
          "120742.948000",
          "120742.951000",
          "120742.954000",
          "120742.957000",
          "120742.959000",
          "120742.962000",
          "120742.966000",
          "120742.968000",
          "120742.971000",
          "120742.974000",
          "120742.977000",
          "120742.980000",
          "120742.983000",
          "120742.986000",
          "120742.989000",
          "120742.992000",
          "120842.944000",
          "120842.948000",
          "120842.950000",
          "120842.953000",
          "120842.964000",
          "120842.967000",
          "120842.970000",
          "120842.972000",
          "120842.975000",
          "120842.978000",
          "120842.980000",
          "120842.983000",
          "120842.986000",
          "120842.988000",
          "120842.991000",
          "120842.994000",
          "120842.996000",
          "120843.000000",
          "120843.003000",
          "120843.005000",
          "120843.008000",
          "120843.011000",
          "120843.013000",
          "120843.016000",
          "120843.019000",
          "120942.943000",
          "120942.946000",
          "120942.957000",
          "120942.959000",
          "120942.962000",
          "120942.965000",
          "120942.968000",
          "120942.971000",
          "120942.974000",
          "120942.977000",
          "120942.980000",
          "120942.983000",
          "120942.986000",
          "120942.988000",
          "120942.992000",
          "120942.994000",
          "120942.998000",
          "120943.000000",
          "120943.003000",
          "120943.006000",
          "120943.009000",
          "120943.012000",
          "120943.015000",
          "120943.017000",
          "120943.020000",
          "120943.023000",
          "121042.944000",
          "121042.947000",
          "121042.951000",
          "121042.953000",
          "121042.956000",
          "121042.959000",
          "121042.963000",
          "121042.966000",
          "121042.968000",
          "121042.971000",
          "121042.975000",
          "121042.977000",
          "121042.980000",
          "121042.983000",
          "121042.986000",
          "121042.989000",
          "121042.992000",
          "121042.995000",
          "121042.998000",
          "121043.002000",
          "121043.005000",
          "121043.008000",
          "121043.011000",
          "121043.014000",
          "121043.016000",
          "121043.019000",
          "121055.378000",
          "121055.381000",
          "121055.384000",
          "121055.387000",
          "121055.389000"
        ],
        "InstanceCreationTime": [
          "120702.949000",
          "120702.953000",
          "120702.955000",
          "120702.958000",
          "120702.961000",
          "120702.964000",
          "120702.967000",
          "120702.969000",
          "120702.973000",
          "120702.975000",
          "120702.978000",
          "120702.981000",
          "120702.984000",
          "120702.987000",
          "120702.990000",
          "120702.993000",
          "120702.996000",
          "120703.000000",
          "120703.002000",
          "120703.006000",
          "120703.009000",
          "120703.012000",
          "120703.016000",
          "120703.019000",
          "120703.022000",
          "120703.025000",
          "120703.028000",
          "120703.031000",
          "120742.944000",
          "120742.948000",
          "120742.951000",
          "120742.954000",
          "120742.957000",
          "120742.959000",
          "120742.962000",
          "120742.966000",
          "120742.968000",
          "120742.971000",
          "120742.974000",
          "120742.977000",
          "120742.980000",
          "120742.983000",
          "120742.986000",
          "120742.989000",
          "120742.992000",
          "120842.944000",
          "120842.948000",
          "120842.950000",
          "120842.953000",
          "120842.964000",
          "120842.967000",
          "120842.970000",
          "120842.972000",
          "120842.975000",
          "120842.978000",
          "120842.980000",
          "120842.983000",
          "120842.986000",
          "120842.988000",
          "120842.991000",
          "120842.994000",
          "120842.996000",
          "120843.000000",
          "120843.003000",
          "120843.005000",
          "120843.008000",
          "120843.011000",
          "120843.013000",
          "120843.016000",
          "120843.019000",
          "120942.943000",
          "120942.946000",
          "120942.957000",
          "120942.959000",
          "120942.962000",
          "120942.965000",
          "120942.968000",
          "120942.971000",
          "120942.974000",
          "120942.977000",
          "120942.980000",
          "120942.983000",
          "120942.986000",
          "120942.988000",
          "120942.992000",
          "120942.994000",
          "120942.998000",
          "120943.000000",
          "120943.003000",
          "120943.006000",
          "120943.009000",
          "120943.012000",
          "120943.015000",
          "120943.017000",
          "120943.020000",
          "120943.023000",
          "121042.944000",
          "121042.947000",
          "121042.951000",
          "121042.953000",
          "121042.956000",
          "121042.959000",
          "121042.963000",
          "121042.966000",
          "121042.968000",
          "121042.971000",
          "121042.975000",
          "121042.977000",
          "121042.980000",
          "121042.983000",
          "121042.986000",
          "121042.989000",
          "121042.992000",
          "121042.995000",
          "121042.998000",
          "121043.002000",
          "121043.005000",
          "121043.008000",
          "121043.011000",
          "121043.014000",
          "121043.016000",
          "121043.019000",
          "121055.378000",
          "121055.381000",
          "121055.384000",
          "121055.387000",
          "121055.389000"
        ],
        "InstanceNumber": [
          1,
          2,
          3,
          4,
          5,
          6,
          7,
          8,
          9,
          10,
          11,
          12,
          13,
          14,
          15,
          16,
          17,
          18,
          19,
          20,
          21,
          22,
          23,
          24,
          25,
          26,
          27,
          28,
          29,
          30,
          31,
          32,
          33,
          34,
          35,
          36,
          37,
          38,
          39,
          40,
          41,
          42,
          43,
          44,
          45,
          46,
          47,
          48,
          49,
          50,
          51,
          52,
          53,
          54,
          55,
          56,
          57,
          58,
          59,
          60,
          61,
          62,
          63,
          64,
          65,
          66,
          67,
          68,
          69,
          70,
          71,
          72,
          73,
          74,
          75,
          76,
          77,
          78,
          79,
          80,
          81,
          82,
          83,
          84,
          85,
          86,
          87,
          88,
          89,
          90,
          91,
          92,
          93,
          94,
          95,
          96,
          97,
          98,
          99,
          100,
          101,
          102,
          103,
          104,
          105,
          106,
          107,
          108,
          109,
          110,
          111,
          112,
          113,
          114,
          115,
          116,
          117,
          118,
          119,
          120,
          121,
          122,
          123,
          124,
          125,
          126,
          127
        ],
        "LargestImagePixelValue": [
          1768,
          2078,
          1774,
          2095,
          1762,
          2120,
          1958,
          1756,
          1827,
          2104,
          1744,
          1863,
          1804,
          2161,
          1698,
          2484,
          1782,
          1832,
          2036,
          1763,
          2161,
          1747,
          1905,
          1752,
          1757,
          1729,
          2137,
          1702,
          1726,
          1739,
          2452,
          1750,
          2050,
          1812,
          1796,
          1942,
          1802,
          2175,
          1722,
          1819,
          1797,
          2273,
          1853,
          1755,
          1747,
          1777,
          1732,
          1761,
          1883,
          1941,
          1756,
          1828,
          1761,
          1695,
          2150,
          1736,
          1714,
          2129,
          1726,
          1957,
          1800,
          2407,
          1814,
          1764,
          1794,
          1822,
          1766,
          1882,
          2126,
          1759,
          1954,
          1738,
          1738,
          1890,
          1797,
          1791,
          1900,
          1882,
          1724,
          1760,
          2231,
          1775,
          1727,
          1912,
          1749,
          1835,
          1768,
          1730,
          1951,
          1826,
          1715,
          1737,
          1811,
          1879,
          1869,
          2303,
          2168,
          1914,
          2092,
          1833,
          1788,
          1752,
          1804,
          2094,
          1732,
          1769,
          1797,
          1783,
          1805,
          1781,
          1852,
          1976,
          1827,
          1797,
          1840,
          1791,
          1767,
          1743,
          2005,
          2021,
          1710,
          2047,
          1779,
          1778,
          1806,
          1765,
          1913
        ],
        "WindowCenter": [
          811.0,
          811.0,
          808.0,
          811.0,
          811.0,
          810.0,
          808.0,
          806.0,
          809.0,
          812.0,
          810.0,
          811.0,
          812.0,
          810.0,
          807.0,
          813.0,
          808.0,
          815.0,
          812.0,
          808.0,
          807.0,
          807.0,
          808.0,
          807.0,
          810.0,
          809.0,
          808.0,
          810.0,
          810.0,
          809.0,
          809.0,
          812.0,
          811.0,
          811.0,
          809.0,
          810.0,
          808.0,
          811.0,
          811.0,
          813.0,
          812.0,
          812.0,
          808.0,
          808.0,
          810.0,
          810.0,
          811.0,
          811.0,
          809.0,
          811.0,
          810.0,
          813.0,
          810.0,
          812.0,
          811.0,
          809.0,
          809.0,
          809.0,
          809.0,
          811.0,
          810.0,
          815.0,
          809.0,
          816.0,
          815.0,
          813.0,
          813.0,
          813.0,
          810.0,
          809.0,
          812.0,
          811.0,
          812.0,
          812.0,
          813.0,
          811.0,
          811.0,
          811.0,
          810.0,
          811.0,
          812.0,
          810.0,
          812.0,
          810.0,
          809.0,
          810.0,
          810.0,
          812.0,
          812.0,
          812.0,
          811.0,
          813.0,
          814.0,
          813.0,
          811.0,
          812.0,
          808.0,
          810.0,
          806.0,
          811.0,
          810.0,
          810.0,
          810.0,
          811.0,
          812.0,
          814.0,
          813.0,
          814.0,
          814.0,
          816.0,
          815.0,
          816.0,
          812.0,
          813.0,
          813.0,
          813.0,
          814.0,
          813.0,
          813.0,
          813.0,
          812.0,
          813.0,
          812.0,
          812.0,
          812.0,
          811.0,
          812.0
        ],
        "WindowWidth": [
          1735.0,
          1737.0,
          1726.0,
          1736.0,
          1733.0,
          1735.0,
          1728.0,
          1724.0,
          1729.0,
          1737.0,
          1731.0,
          1738.0,
          1738.0,
          1733.0,
          1727.0,
          1742.0,
          1726.0,
          1749.0,
          1739.0,
          1728.0,
          1724.0,
          1728.0,
          1728.0,
          1726.0,
          1732.0,
          1730.0,
          1729.0,
          1731.0,
          1732.0,
          1730.0,
          1736.0,
          1738.0,
          1734.0,
          1738.0,
          1732.0,
          1732.0,
          1726.0,
          1735.0,
          1734.0,
          1743.0,
          1739.0,
          1737.0,
          1727.0,
          1728.0,
          1731.0,
          1736.0,
          1736.0,
          1734.0,
          1730.0,
          1738.0,
          1733.0,
          1743.0,
          1736.0,
          1737.0,
          1737.0,
          1731.0,
          1730.0,
          1733.0,
          1731.0,
          1735.0,
          1732.0,
          1746.0,
          1731.0,
          1753.0,
          1751.0,
          1744.0,
          1744.0,
          1742.0,
          1735.0,
          1733.0,
          1739.0,
          1736.0,
          1741.0,
          1741.0,
          1741.0,
          1737.0,
          1737.0,
          1735.0,
          1733.0,
          1737.0,
          1739.0,
          1733.0,
          1739.0,
          1735.0,
          1731.0,
          1734.0,
          1733.0,
          1736.0,
          1740.0,
          1737.0,
          1737.0,
          1743.0,
          1743.0,
          1744.0,
          1739.0,
          1738.0,
          1726.0,
          1734.0,
          1727.0,
          1735.0,
          1735.0,
          1735.0,
          1735.0,
          1740.0,
          1740.0,
          1745.0,
          1744.0,
          1742.0,
          1742.0,
          1751.0,
          1749.0,
          1748.0,
          1738.0,
          1745.0,
          1741.0,
          1741.0,
          1744.0,
          1741.0,
          1744.0,
          1743.0,
          1738.0,
          1742.0,
          1739.0,
          1740.0,
          1739.0,
          1737.0,
          1738.0
        ]
      },
      "slices": {}
    }
  },
  "dummy_trs": 0,
  "dvars_nstd": 38.781301907142854,
  "dvars_std": 1.3220666019841278,
  "dvars_vstd": 1.036307896746032,
  "efc": 0.564846352558883,
  "fber": 1669.3343505859375,
  "fd_mean": 0.5403239012858235,
  "fd_num": 117,
  "fd_perc": 92.1259842519685,
  "fwhm_avg": 1.7926813213227686,
  "fwhm_x": 1.6996333333333336,
  "fwhm_y": 1.9777166666666668,
  "fwhm_z": 1.7006939639683052,
  "gcor": 0.0464802,
  "gsr_x": -0.0057134609669446945,
  "gsr_y": 0.04433805122971535,
  "provenance": {
    "md5sum": "33bc6ee9977cf7ce8042842f7a61445e",
    "settings": {
      "fd_thres": 0.2,
      "testing": false
    },
    "software": "mriqc",
    "version": "22.0.1",
    "webapi_port": null,
    "webapi_url": "https://mriqc.nimh.nih.gov/api/v1"
  },
  "size_t": 127,
  "size_x": 64,
  "size_y": 64,
  "size_z": 34,
  "snr": 6.520388481509281,
  "spacing_tr": 2.3399999141693115,
  "spacing_x": 3.0,
  "spacing_y": 3.0,
  "spacing_z": 3.299999952316284,
  "summary_bg_k": 75.80645590120993,
  "summary_bg_mad": 9.887904954320954,
  "summary_bg_mean": 35.332584381103516,
  "summary_bg_median": 22.527559280395508,
  "summary_bg_n": 73394.0,
  "summary_bg_p05": 12.574803352355957,
  "summary_bg_p95": 95.451577758789,
  "summary_bg_stdv": 50.530094146728516,
  "summary_fg_k": 0.816041435767032,
  "summary_fg_mad": 152.03097590604898,
  "summary_fg_mean": 949.5803833007812,
  "summary_fg_median": 947.409423828125,
  "summary_fg_n": 33667.0,
  "summary_fg_p05": 725.7134033203125,
  "summary_fg_p95": 1175.785009765625,
  "summary_fg_stdv": 145.29737854003906,
  "tsnr": 52.62943706288934
}