{
  "aor": 0.006690234375,
  "aqi": 0.02733784484375,
  "bids_meta": {
    "AcquisitionMatrixPE": 64,
    "AcquisitionNumber": 1,
    "AcquisitionTime": "12:06:9.947500",
    "BandwidthPerPixelPhaseEncode": 24.038,
    "BaseResolution": 64,
    "BodyPartExamined": "HEAD",
    "ConsistencyInfo": "N4_VD13A_LATEST_20120616",
    "ConversionSoftware": "dcm2niix",
    "ConversionSoftwareVersion": "v1.0.20181125  GCC6.3.0",
    "DerivedVendorReportedEchoSpacing": 0.000650012,
    "DeviceSerialNumber": "45250",
    "DwellTime": 4.6e-06,
    "EchoTime": 0.033,
    "EchoTrainLength": 64,
    "EffectiveEchoSpacing": 0.000650012,
    "FlipAngle": 90,
    "ImageOrientationPatientDICOM": [
      0.995827,
      -0.0912569,
      -0.000918915,
      0.0888751,
      0.972025,
      -0.217414
    ],
    "ImageType": [
      "ORIGINAL",
      "PRIMARY",
      "M",
      "ND",
      "NORM",
      "MOSAIC"
    ],
    "ImagingFrequency": 123.214,
    "InPlanePhaseEncodingDirectionDICOM": "COL",
    "InstitutionAddress": "Kopernikusstr._26_Graz_Graz_AT_8010",
    "InstitutionName": "KFU",
    "InstitutionalDepartmentName": "Department",
    "MRAcquisitionType": "2D",
    "MagneticFieldStrength": 3,
    "Manufacturer": "Siemens",
    "ManufacturersModelName": "Skyra",
    "Modality": "MR",
    "PartialFourier": 1,
    "PatientPosition": "HFS",
    "PercentPhaseFOV": 100,
    "PhaseEncodingDirection": "j-",
    "PhaseEncodingSteps": 64,
    "PhaseResolution": 1,
    "PixelBandwidth": 1700,
    "ProcedureStepDescription": "KFU_Entw-Psy",
    "ProtocolName": "fMRI_1",
    "PulseSequenceDetails": "%SiemensSeq%_ep2d_pace",
    "ReceiveCoilActiveElements": "HE1-4",
    "ReceiveCoilName": "HeadNeck_20",
    "ReconMatrixPE": 64,
    "RepetitionTime": 2.34,
    "SAR": 0.148385,
    "ScanOptions": "FS",
    "ScanningSequence": "EP",
    "SequenceName": "_epfid2d1_64",
    "SequenceVariant": "SK",
    "SeriesDescription": "fMRI_1",
    "SeriesNumber": 2,
    "ShimSetting": [
      -1576,
      -3691,
      -4387,
      395,
      527,
      18,
      112,
      -215
    ],
    "SliceThickness": 3,
    "SliceTiming": [
      2.25,
      2.1825,
      2.115,
      2.045,
      1.9775,
      1.91,
      1.84,
      1.7725,
      1.705,
      1.6375,
      1.5675,
      1.5,
      1.4325,
      1.3625,
      1.295,
      1.2275,
      1.16,
      1.09,
      1.0225,
      0.955,
      0.885,
      0.8175,
      0.75,
      0.68,
      0.6125,
      0.545,
      0.4775,
      0.4075,
      0.34,
      0.2725,
      0.2025,
      0.135,
      0.0675,
      0
    ],
    "SoftwareVersions": "syngo_MR_D13",
    "SpacingBetweenSlices": 3.3,
    "StationName": "FBMTMR1",
    "TaskName": "read",
    "TotalReadoutTime": 0.0409508,
    "TxRefAmp": 331.014,
    "dataset": "ds003126",
    "dcmmeta_affine": [
      [
        -2.987480878829956,
        0.2666253447532654,
        -0.06842125952243805,
        87.93942260742188
      ],
      [
        0.273770809173584,
        2.916074752807617,
        -0.7142016291618347,
        -111.33130645751953
      ],
      [
        -0.0027567457873374224,
        0.652241051197052,
        3.2210612297058105,
        -36.246307373046875
      ],
      [
        0.0,
        0.0,
        0.0,
        1.0
      ]
    ],
    "dcmmeta_reorient_transform": [
      [
        0.0,
        -1.0,
        0.0,
        63.0
      ],
      [
        1.0,
        0.0,
        0.0,
        0.0
      ],
      [
        0.0,
        0.0,
        1.0,
        0.0
      ],
      [
        0.0,
        0.0,
        0.0,
        1.0
      ]
    ],
    "dcmmeta_shape": [
      64,
      64,
      34,
      128
    ],
    "dcmmeta_slice_dim": 2,
    "dcmmeta_version": 0.6,
    "global": {
      "const": {
        "AcquisitionMatrix": [
          64,
          0,
          0,
          64
        ],
        "AngioFlag": "N",
        "BitsAllocated": 16,
        "BitsStored": 12,
        "BodyPartExamined": "HEAD",
        "Columns": 384,
        "EchoNumbers": 1,
        "EchoTime": 33.0,
        "EchoTrainLength": 64,
        "FlipAngle": 90.0,
        "HighBit": 11,
        "ImageOrientationPatient": [
          0.99582695631185,
          -0.0912569376946,
          -0.0009189152742,
          0.08887511541877,
          0.97202495142208,
          -0.2174136786686
        ],
        "ImagePositionPatient": [
          -625.39381688652,
          -495.15005935584,
          109.64452474886
        ],
        "ImageType": [
          "ORIGINAL",
          "PRIMARY",
          "M",
          "ND",
          "NORM",
          "MOSAIC"
        ],
        "ImagedNucleus": "1H",
        "ImagingFrequency": 123.214431,
        "InPlanePhaseEncodingDirection": "COL",
        "MRAcquisitionType": "2D",
        "MagneticFieldStrength": 3.0,
        "Manufacturer": "SIEMENS",
        "ManufacturerModelName": "Skyra",
        "Modality": "MR",
        "NumberOfAverages": 1.0,
        "NumberOfPhaseEncodingSteps": 64,
        "PercentPhaseFieldOfView": 100.0,
        "PercentSampling": 100.0,
        "PerformedProcedureStepStartTime": "120111.794000",
        "PhotometricInterpretation": "MONOCHROME2",
        "PixelBandwidth": 1700.0,
        "PixelRepresentation": 0,
        "PixelSpacing": [
          3.0,
          3.0
        ],
        "ProtocolName": "fMRI_1",
        "RepetitionTime": 2340.0,
        "Rows": 384,
        "SAR": 0.14838520368772,
        "SamplesPerPixel": 1,
        "ScanOptions": "FS",
        "ScanningSequence": "EP",
        "SequenceName": "*epfid2d1_64",
        "SequenceVariant": "SK",
        "SeriesDescription": "fMRI_1",
        "SeriesNumber": 2,
        "SeriesTime": "120710.563000",
        "SliceLocation": -13.107725513363,
        "SliceThickness": 3.0,
        "SmallestImagePixelValue": 0,
        "SoftwareVersions": "syngo MR D13",
        "SpacingBetweenSlices": 3.3000000933983,
        "SpecificCharacterSet": "ISO_IR 100",
        "StudyID": "1",
        "StudyTime": "120111.746000",
        "TransmitCoilName": "Body",
        "VariableFlipAngleFlag": "N",
        "WindowCenterWidthExplanation": "Algo1",
        "dBdt": 0.0
      },
      "slices": {}
    },
    "modality": "bold",
    "run_id": 1,
    "session_id": "2",
    "subject_id": "047EPKL012015",
    "task_id": "read",
    "time": {
      "samples": {
        "AcquisitionNumber": [
          1,
          2,
          3,
          4,
          5,
          6,
          7,
          8,
          9,
          10,
          11,
          12,
          13,
          14,
          15,
          16,
          17,
          18,
          19,
          20,
          21,
          22,
          23,
          24,
          25,
          26,
          27,
          28,
          29,
          30,
          31,
          32,
          33,
          34,
          35,
          36,
          37,
          38,
          39,
          40,
          41,
          42,
          43,
          44,
          45,
          46,
          47,
          48,
          49,
          50,
          51,
          52,
          53,
          54,
          55,
          56,
          57,
          58,
          59,
          60,
          61,
          62,
          63,
          64,
          65,
          66,
          67,
          68,
          69,
          70,
          71,
          72,
          73,
          74,
          75,
          76,
          77,
          78,
          79,
          80,
          81,
          82,
          83,
          84,
          85,
          86,
          87,
          88,
          89,
          90,
          91,
          92,
          93,
          94,
          95,
          96,
          97,
          98,
          99,
          100,
          101,
          102,
          103,
          104,
          105,
          106,
          107,
          108,
          109,
          110,
          111,
          112,
          113,
          114,
          115,
          116,
          117,
          118,
          119,
          120,
          121,
          122,
          123,
          124,
          125,
          126,
          127,
          128
        ],
        "AcquisitionTime": [
          "120609.947500",
          "120612.287500",
          "120614.627500",
          "120616.967500",
          "120619.307500",
          "120621.647500",
          "120623.987500",
          "120626.327500",
          "120628.667500",
          "120631.007500",
          "120633.347500",
          "120635.687500",
          "120638.027500",
          "120640.367500",
          "120642.707500",
          "120645.047500",
          "120647.387500",
          "120649.727500",
          "120652.067500",
          "120654.407500",
          "120656.747500",
          "120659.087500",
          "120701.427500",
          "120703.767500",
          "120706.107500",
          "120708.447500",
          "120710.787500",
          "120713.127500",
          "120715.467500",
          "120717.807500",
          "120720.147500",
          "120722.487500",
          "120724.827500",
          "120727.167500",
          "120729.507500",
          "120731.847500",
          "120734.187500",
          "120736.527500",
          "120738.867500",
          "120741.207500",
          "120743.547500",
          "120745.887500",
          "120748.227500",
          "120750.567500",
          "120752.907500",
          "120755.247500",
          "120757.587500",
          "120759.927500",
          "120802.267500",
          "120804.607500",
          "120806.947500",
          "120809.287500",
          "120811.627500",
          "120813.967500",
          "120816.307500",
          "120818.647500",
          "120820.987500",
          "120823.327500",
          "120825.667500",
          "120828.007500",
          "120830.347500",
          "120832.687500",
          "120835.027500",
          "120837.367500",
          "120839.707500",
          "120842.047500",
          "120844.387500",
          "120846.727500",
          "120849.067500",
          "120851.407500",
          "120853.747500",
          "120856.087500",
          "120858.427500",
          "120900.767500",
          "120903.107500",
          "120905.447500",
          "120907.787500",
          "120910.127500",
          "120912.467500",
          "120914.807500",
          "120917.147500",
          "120919.487500",
          "120921.827500",
          "120924.167500",
          "120926.507500",
          "120928.847500",
          "120931.187500",
          "120933.527500",
          "120935.867500",
          "120938.207500",
          "120940.547500",
          "120942.887500",
          "120945.227500",
          "120947.567500",
          "120949.907500",
          "120952.247500",
          "120954.587500",
          "120956.927500",
          "120959.267500",
          "121001.607500",
          "121003.947500",
          "121006.287500",
          "121008.627500",
          "121010.967500",
          "121013.307500",
          "121015.647500",
          "121017.987500",
          "121020.327500",
          "121022.667500",
          "121025.007500",
          "121027.347500",
          "121029.687500",
          "121032.027500",
          "121034.367500",
          "121036.707500",
          "121039.047500",
          "121041.387500",
          "121043.727500",
          "121046.067500",
          "121048.407500",
          "121050.747500",
          "121053.087500",
          "121055.427500",
          "121057.767500",
          "121100.107500",
          "121102.447500",
          "121104.787500",
          "121107.127500"
        ],
        "ContentTime": [
          "120710.568000",
          "120710.572000",
          "120710.574000",
          "120710.582000",
          "120710.585000",
          "120710.588000",
          "120710.591000",
          "120710.593000",
          "120710.596000",
          "120710.599000",
          "120710.601000",
          "120710.604000",
          "120710.607000",
          "120710.609000",
          "120710.612000",
          "120710.615000",
          "120710.617000",
          "120710.620000",
          "120710.623000",
          "120710.625000",
          "120710.628000",
          "120710.631000",
          "120710.640000",
          "120710.643000",
          "120710.646000",
          "120710.649000",
          "120750.561000",
          "120750.571000",
          "120750.573000",
          "120750.576000",
          "120750.579000",
          "120750.582000",
          "120750.585000",
          "120750.587000",
          "120750.590000",
          "120750.593000",
          "120750.595000",
          "120750.598000",
          "120750.600000",
          "120750.603000",
          "120750.606000",
          "120750.608000",
          "120750.611000",
          "120850.561000",
          "120850.564000",
          "120850.567000",
          "120850.570000",
          "120850.573000",
          "120850.576000",
          "120850.579000",
          "120850.582000",
          "120850.585000",
          "120850.587000",
          "120850.590000",
          "120850.593000",
          "120850.596000",
          "120850.598000",
          "120850.601000",
          "120850.604000",
          "120850.607000",
          "120850.609000",
          "120850.612000",
          "120850.615000",
          "120850.617000",
          "120850.620000",
          "120850.622000",
          "120850.625000",
          "120850.628000",
          "120850.631000",
          "120950.560000",
          "120950.563000",
          "120950.566000",
          "120950.573000",
          "120950.576000",
          "120950.579000",
          "120950.581000",
          "120950.584000",
          "120950.587000",
          "120950.590000",
          "120950.593000",
          "120950.595000",
          "120950.598000",
          "120950.601000",
          "120950.603000",
          "120950.606000",
          "120950.609000",
          "120950.612000",
          "120950.614000",
          "120950.617000",
          "120950.620000",
          "120950.623000",
          "120950.625000",
          "120950.628000",
          "120950.631000",
          "121050.563000",
          "121050.571000",
          "121050.574000",
          "121050.577000",
          "121050.580000",
          "121050.583000",
          "121050.586000",
          "121050.588000",
          "121050.591000",
          "121050.595000",
          "121050.598000",
          "121050.601000",
          "121050.604000",
          "121050.607000",
          "121050.610000",
          "121050.613000",
          "121050.616000",
          "121050.621000",
          "121050.623000",
          "121050.626000",
          "121050.629000",
          "121050.632000",
          "121050.634000",
          "121050.637000",
          "121050.640000",
          "121050.643000",
          "121108.628000",
          "121108.638000",
          "121108.642000",
          "121108.647000",
          "121108.652000",
          "121108.655000",
          "121108.658000",
          "121108.661000"
        ],
        "InstanceCreationTime": [
          "120710.568000",
          "120710.572000",
          "120710.574000",
          "120710.582000",
          "120710.585000",
          "120710.588000",
          "120710.591000",
          "120710.593000",
          "120710.596000",
          "120710.599000",
          "120710.601000",
          "120710.604000",
          "120710.607000",
          "120710.609000",
          "120710.612000",
          "120710.615000",
          "120710.617000",
          "120710.620000",
          "120710.623000",
          "120710.625000",
          "120710.628000",
          "120710.631000",
          "120710.640000",
          "120710.643000",
          "120710.646000",
          "120710.649000",
          "120750.561000",
          "120750.571000",
          "120750.573000",
          "120750.576000",
          "120750.579000",
          "120750.582000",
          "120750.585000",
          "120750.587000",
          "120750.590000",
          "120750.593000",
          "120750.595000",
          "120750.598000",
          "120750.600000",
          "120750.603000",
          "120750.606000",
          "120750.608000",
          "120750.611000",
          "120850.561000",
          "120850.564000",
          "120850.567000",
          "120850.570000",
          "120850.573000",
          "120850.576000",
          "120850.579000",
          "120850.582000",
          "120850.585000",
          "120850.587000",
          "120850.590000",
          "120850.593000",
          "120850.596000",
          "120850.598000",
          "120850.601000",
          "120850.604000",
          "120850.607000",
          "120850.609000",
          "120850.612000",
          "120850.615000",
          "120850.617000",
          "120850.620000",
          "120850.622000",
          "120850.625000",
          "120850.628000",
          "120850.631000",
          "120950.560000",
          "120950.563000",
          "120950.566000",
          "120950.573000",
          "120950.576000",
          "120950.579000",
          "120950.581000",
          "120950.584000",
          "120950.587000",
          "120950.590000",
          "120950.593000",
          "120950.595000",
          "120950.598000",
          "120950.601000",
          "120950.603000",
          "120950.606000",
          "120950.609000",
          "120950.612000",
          "120950.614000",
          "120950.617000",
          "120950.620000",
          "120950.623000",
          "120950.625000",
          "120950.628000",
          "120950.631000",
          "121050.563000",
          "121050.571000",
          "121050.574000",
          "121050.577000",
          "121050.580000",
          "121050.583000",
          "121050.586000",
          "121050.588000",
          "121050.591000",
          "121050.595000",
          "121050.598000",
          "121050.601000",
          "121050.604000",
          "121050.607000",
          "121050.610000",
          "121050.613000",
          "121050.616000",
          "121050.621000",
          "121050.623000",
          "121050.626000",
          "121050.629000",
          "121050.632000",
          "121050.634000",
          "121050.637000",
          "121050.640000",
          "121050.643000",
          "121108.628000",
          "121108.638000",
          "121108.642000",
          "121108.647000",
          "121108.652000",
          "121108.655000",
          "121108.658000",
          "121108.661000"
        ],
        "InstanceNumber": [
          1,
          2,
          3,
          4,
          5,
          6,
          7,
          8,
          9,
          10,
          11,
          12,
          13,
          14,
          15,
          16,
          17,
          18,
          19,
          20,
          21,
          22,
          23,
          24,
          25,
          26,
          27,
          28,
          29,
          30,
          31,
          32,
          33,
          34,
          35,
          36,
          37,
          38,
          39,
          40,
          41,
          42,
          43,
          44,
          45,
          46,
          47,
          48,
          49,
          50,
          51,
          52,
          53,
          54,
          55,
          56,
          57,
          58,
          59,
          60,
          61,
          62,
          63,
          64,
          65,
          66,
          67,
          68,
          69,
          70,
          71,
          72,
          73,
          74,
          75,
          76,
          77,
          78,
          79,
          80,
          81,
          82,
          83,
          84,
          85,
          86,
          87,
          88,
          89,
          90,
          91,
          92,
          93,
          94,
          95,
          96,
          97,
          98,
          99,
          100,
          101,
          102,
          103,
          104,
          105,
          106,
          107,
          108,
          109,
          110,
          111,
          112,
          113,
          114,
          115,
          116,
          117,
          118,
          119,
          120,
          121,
          122,
          123,
          124,
          125,
          126,
          127,
          128
        ],
        "LargestImagePixelValue": [
          1655,
          1865,
          1840,
          1787,
          1748,
          1901,
          1576,
          1745,
          1643,
          1594,
          1764,
          1909,
          1767,
          1535,
          1562,
          1569,
          1598,
          1833,
          1782,
          1591,
          1572,
          1669,
          1589,
          1565,
          1634,
          1800,
          1662,
          1575,
          1742,
          1564,
          1592,
          1582,
          1657,
          1574,
          1605,
          1778,
          1555,
          1825,
          1636,
          1824,
          1585,
          1671,
          1658,
          1827,
          1731,
          1812,
          1664,
          1588,
          1657,
          1571,
          1562,
          1582,
          1567,
          1567,
          1658,
          1612,
          1598,
          1832,
          2023,
          1841,
          1528,
          1789,
          1610,
          1581,
          1584,
          1920,
          1650,
          1690,
          1589,
          1988,
          1554,
          1565,
          1638,
          1611,
          1624,
          1733,
          1566,
          1864,
          1596,
          1540,
          1770,
          1712,
          1588,
          1976,
          1791,
          1740,
          1838,
          1642,
          1709,
          1575,
          1554,
          1633,
          1784,
          1973,
          1616,
          1884,
          1672,
          1605,
          1728,
          1686,
          1569,
          1602,
          1868,
          1573,
          1650,
          2055,
          1855,
          2059,
          1614,
          1583,
          1590,
          1695,
          1604,
          1648,
          1805,
          1624,
          1646,
          1598,
          1937,
          1894,
          1588,
          1521,
          1708,
          1597,
          1575,
          1637,
          1648,
          1594
        ],
        "WindowCenter": [
          759.0,
          758.0,
          756.0,
          755.0,
          756.0,
          756.0,
          753.0,
          755.0,
          754.0,
          756.0,
          756.0,
          755.0,
          751.0,
          754.0,
          754.0,
          756.0,
          754.0,
          756.0,
          753.0,
          754.0,
          753.0,
          755.0,
          755.0,
          756.0,
          756.0,
          754.0,
          754.0,
          755.0,
          755.0,
          753.0,
          755.0,
          756.0,
          755.0,
          758.0,
          756.0,
          757.0,
          754.0,
          754.0,
          754.0,
          755.0,
          752.0,
          756.0,
          755.0,
          757.0,
          754.0,
          756.0,
          754.0,
          758.0,
          754.0,
          754.0,
          756.0,
          757.0,
          758.0,
          758.0,
          757.0,
          756.0,
          757.0,
          760.0,
          755.0,
          755.0,
          753.0,
          753.0,
          758.0,
          762.0,
          758.0,
          761.0,
          758.0,
          760.0,
          757.0,
          758.0,
          756.0,
          757.0,
          758.0,
          756.0,
          758.0,
          758.0,
          759.0,
          759.0,
          759.0,
          758.0,
          759.0,
          756.0,
          756.0,
          759.0,
          758.0,
          762.0,
          759.0,
          756.0,
          760.0,
          756.0,
          758.0,
          757.0,
          761.0,
          759.0,
          757.0,
          761.0,
          763.0,
          763.0,
          762.0,
          762.0,
          760.0,
          762.0,
          764.0,
          762.0,
          763.0,
          761.0,
          758.0,
          760.0,
          757.0,
          762.0,
          760.0,
          762.0,
          759.0,
          761.0,
          760.0,
          762.0,
          764.0,
          763.0,
          762.0,
          760.0,
          760.0,
          761.0,
          763.0,
          760.0,
          762.0,
          762.0,
          761.0,
          761.0
        ],
        "WindowWidth": [
          1608.0,
          1603.0,
          1602.0,
          1598.0,
          1600.0,
          1602.0,
          1594.0,
          1597.0,
          1595.0,
          1601.0,
          1602.0,
          1598.0,
          1590.0,
          1595.0,
          1596.0,
          1600.0,
          1594.0,
          1600.0,
          1594.0,
          1595.0,
          1592.0,
          1598.0,
          1596.0,
          1599.0,
          1599.0,
          1596.0,
          1595.0,
          1597.0,
          1597.0,
          1593.0,
          1596.0,
          1601.0,
          1598.0,
          1603.0,
          1600.0,
          1603.0,
          1596.0,
          1596.0,
          1596.0,
          1597.0,
          1591.0,
          1600.0,
          1597.0,
          1602.0,
          1594.0,
          1602.0,
          1597.0,
          1604.0,
          1594.0,
          1593.0,
          1599.0,
          1602.0,
          1605.0,
          1605.0,
          1602.0,
          1599.0,
          1602.0,
          1611.0,
          1598.0,
          1597.0,
          1593.0,
          1596.0,
          1602.0,
          1614.0,
          1607.0,
          1614.0,
          1607.0,
          1608.0,
          1601.0,
          1606.0,
          1601.0,
          1603.0,
          1606.0,
          1600.0,
          1605.0,
          1603.0,
          1606.0,
          1608.0,
          1606.0,
          1607.0,
          1607.0,
          1599.0,
          1601.0,
          1606.0,
          1604.0,
          1617.0,
          1609.0,
          1602.0,
          1611.0,
          1600.0,
          1605.0,
          1602.0,
          1612.0,
          1605.0,
          1603.0,
          1614.0,
          1618.0,
          1617.0,
          1615.0,
          1616.0,
          1612.0,
          1617.0,
          1621.0,
          1616.0,
          1618.0,
          1613.0,
          1606.0,
          1610.0,
          1602.0,
          1616.0,
          1611.0,
          1615.0,
          1609.0,
          1614.0,
          1610.0,
          1615.0,
          1622.0,
          1616.0,
          1617.0,
          1612.0,
          1611.0,
          1614.0,
          1617.0,
          1612.0,
          1615.0,
          1615.0,
          1612.0,
          1611.0
        ]
      },
      "slices": {}
    }
  },
  "dummy_trs": 0,
  "dvars_nstd": 45.93290992763782,
  "dvars_std": 1.2097453230708661,
  "dvars_vstd": 1.0244595537007881,
  "efc": 0.5567736975118409,
  "fber": 1616.3753662109375,
  "fd_mean": 0.9125309009703886,
  "fd_num": 124,
  "fd_perc": 96.875,
  "fwhm_avg": 1.6434237077529126,
  "fwhm_x": 1.5625366666666667,
  "fwhm_y": 1.8302800000000001,
  "fwhm_z": 1.537454456592071,
  "gcor": 0.0542691,
  "gsr_x": -0.004508777987211943,
  "gsr_y": 0.03371845930814743,
  "provenance": {
    "md5sum": "96a1e30531eb913acb90b16ebee65ab3",
    "settings": {
      "fd_thres": 0.2,
      "testing": false
    },
    "software": "mriqc",
    "version": "22.0.1",
    "webapi_port": null,
    "webapi_url": "https://mriqc.nimh.nih.gov/api/v1"
  },
  "size_t": 128,
  "size_x": 64,
  "size_y": 64,
  "size_z": 34,
  "snr": 7.221158748206996,
  "spacing_tr": 2.3399999141693115,
  "spacing_x": 3.0,
  "spacing_y": 3.0,
  "spacing_z": 3.3000001907348633,
  "summary_bg_k": 58.23383930780967,
  "summary_bg_mad": 8.142729371948736,
  "summary_bg_mean": 32.21041488647461,
  "summary_bg_median": 21.171875,
  "summary_bg_n": 75383.0,
  "summary_bg_p05": 12.3828125,
  "summary_bg_p95": 84.21796874999995,
  "summary_bg_stdv": 39.08761978149414,
  "summary_fg_k": 2.56861751939893,
  "summary_fg_mad": 115.53872757494828,
  "summary_fg_mean": 871.6131591796875,
  "summary_fg_median": 871.3671875,
  "summary_fg_n": 32407.0,
  "summary_fg_p05": 692.309375,
  "summary_fg_p95": 1053.6828125,
  "summary_fg_stdv": 120.666748046875,
  "tsnr": 37.98539806739427
}