{
  "aor": 0.004219370078740157,
  "aqi": 0.0382776251968504,
  "bids_meta": {
    "AcquisitionMatrixPE": 64,
    "AcquisitionNumber": 1,
    "AcquisitionTime": "12:17:54.785000",
    "BandwidthPerPixelPhaseEncode": 24.038,
    "BaseResolution": 64,
    "BodyPartExamined": "HEAD",
    "ConsistencyInfo": "N4_VD13A_LATEST_20120616",
    "ConversionSoftware": "dcm2niix",
    "ConversionSoftwareVersion": "v1.0.20181125  GCC6.3.0",
    "DerivedVendorReportedEchoSpacing": 0.000650012,
    "DeviceSerialNumber": "45250",
    "DwellTime": 4.6e-06,
    "EchoTime": 0.033,
    "EchoTrainLength": 64,
    "EffectiveEchoSpacing": 0.000650012,
    "FlipAngle": 90,
    "ImageOrientationPatientDICOM": [
      0.995827,
      -0.0912569,
      -0.000918915,
      0.0888751,
      0.972025,
      -0.217414
    ],
    "ImageType": [
      "ORIGINAL",
      "PRIMARY",
      "M",
      "ND",
      "NORM",
      "MOSAIC"
    ],
    "ImagingFrequency": 123.214,
    "InPlanePhaseEncodingDirectionDICOM": "COL",
    "InstitutionAddress": "Kopernikusstr._26_Graz_Graz_AT_8010",
    "InstitutionName": "KFU",
    "InstitutionalDepartmentName": "Department",
    "MRAcquisitionType": "2D",
    "MagneticFieldStrength": 3,
    "Manufacturer": "Siemens",
    "ManufacturersModelName": "Skyra",
    "Modality": "MR",
    "PartialFourier": 1,
    "PatientPosition": "HFS",
    "PercentPhaseFOV": 100,
    "PhaseEncodingDirection": "j-",
    "PhaseEncodingSteps": 64,
    "PhaseResolution": 1,
    "PixelBandwidth": 1700,
    "ProcedureStepDescription": "KFU_Entw-Psy",
    "ProtocolName": "fMRI_3",
    "PulseSequenceDetails": "%SiemensSeq%_ep2d_pace",
    "ReceiveCoilActiveElements": "HE1-4",
    "ReceiveCoilName": "HeadNeck_20",
    "ReconMatrixPE": 64,
    "RepetitionTime": 2.34,
    "SAR": 0.148385,
    "ScanOptions": "FS",
    "ScanningSequence": "EP",
    "SequenceName": "_epfid2d1_64",
    "SequenceVariant": "SK",
    "SeriesDescription": "fMRI_3",
    "SeriesNumber": 8,
    "ShimSetting": [
      -1574,
      -3702,
      -4394,
      393,
      531,
      -19,
      139,
      -215
    ],
    "SliceThickness": 3,
    "SliceTiming": [
      2.2525,
      2.185,
      2.115,
      2.0475,
      1.98,
      1.9125,
      1.8425,
      1.775,
      1.7075,
      1.6375,
      1.57,
      1.5025,
      1.4325,
      1.365,
      1.2975,
      1.23,
      1.16,
      1.0925,
      1.025,
      0.955,
      0.8875,
      0.82,
      0.7525,
      0.6825,
      0.615,
      0.5475,
      0.4775,
      0.41,
      0.3425,
      0.275,
      0.205,
      0.1375,
      0.07,
      0
    ],
    "SoftwareVersions": "syngo_MR_D13",
    "SpacingBetweenSlices": 3.3,
    "StationName": "FBMTMR1",
    "TaskName": "read",
    "TotalReadoutTime": 0.0409508,
    "TxRefAmp": 331.014,
    "dataset": "ds003126",
    "dcmmeta_affine": [
      [
        -2.987480878829956,
        0.2666253447532654,
        -0.06842125952243805,
        87.93942260742188
      ],
      [
        0.273770809173584,
        2.916074752807617,
        -0.7142016291618347,
        -113.13853454589844
      ],
      [
        -0.0027567457873374224,
        0.652241051197052,
        3.2210612297058105,
        -32.02943801879883
      ],
      [
        0.0,
        0.0,
        0.0,
        1.0
      ]
    ],
    "dcmmeta_reorient_transform": [
      [
        0.0,
        -1.0,
        0.0,
        63.0
      ],
      [
        1.0,
        0.0,
        0.0,
        0.0
      ],
      [
        0.0,
        0.0,
        1.0,
        0.0
      ],
      [
        0.0,
        0.0,
        0.0,
        1.0
      ]
    ],
    "dcmmeta_shape": [
      64,
      64,
      34,
      127
    ],
    "dcmmeta_slice_dim": 2,
    "dcmmeta_version": 0.6,
    "global": {
      "const": {
        "AcquisitionMatrix": [
          64,
          0,
          0,
          64
        ],
        "AngioFlag": "N",
        "BitsAllocated": 16,
        "BitsStored": 12,
        "BodyPartExamined": "HEAD",
        "Columns": 384,
        "EchoNumbers": 1,
        "EchoTime": 33.0,
        "EchoTrainLength": 64,
        "FlipAngle": 90.0,
        "HighBit": 11,
        "ImageOrientationPatient": [
          0.99582695631185,
          -0.0912569376946,
          -0.0009189152742,
          0.08887511541877,
          0.97202495142208,
          -0.2174136786686
        ],
        "ImagePositionPatient": [
          -625.39381688652,
          -493.34283126746,
          113.86139219576
        ],
        "ImageType": [
          "ORIGINAL",
          "PRIMARY",
          "M",
          "ND",
          "NORM",
          "MOSAIC"
        ],
        "ImagedNucleus": "1H",
        "ImagingFrequency": 123.214451,
        "InPlanePhaseEncodingDirection": "COL",
        "MRAcquisitionType": "2D",
        "MagneticFieldStrength": 3.0,
        "Manufacturer": "SIEMENS",
        "ManufacturerModelName": "Skyra",
        "Modality": "MR",
        "NumberOfAverages": 1.0,
        "NumberOfPhaseEncodingSteps": 64,
        "PercentPhaseFieldOfView": 100.0,
        "PercentSampling": 100.0,
        "PerformedProcedureStepStartTime": "120111.794000",
        "PhotometricInterpretation": "MONOCHROME2",
        "PixelBandwidth": 1700.0,
        "PixelRepresentation": 0,
        "PixelSpacing": [
          3.0,
          3.0
        ],
        "ProtocolName": "fMRI_3",
        "RepetitionTime": 2340.0,
        "Rows": 384,
        "SAR": 0.14838520368772,
        "SamplesPerPixel": 1,
        "ScanOptions": "FS",
        "ScanningSequence": "EP",
        "SequenceName": "*epfid2d1_64",
        "SequenceVariant": "SK",
        "SeriesDescription": "fMRI_3",
        "SeriesNumber": 8,
        "SeriesTime": "121845.918000",
        "SliceLocation": -8.6006003910471,
        "SliceThickness": 3.0,
        "SmallestImagePixelValue": 0,
        "SoftwareVersions": "syngo MR D13",
        "SpacingBetweenSlices": 3.3000000369824,
        "SpecificCharacterSet": "ISO_IR 100",
        "StudyID": "1",
        "StudyTime": "120111.746000",
        "TransmitCoilName": "Body",
        "VariableFlipAngleFlag": "N",
        "WindowCenterWidthExplanation": "Algo1",
        "dBdt": 0.0
      },
      "slices": {}
    },
    "modality": "bold",
    "run_id": 3,
    "session_id": "2",
    "subject_id": "047EPKL012015",
    "task_id": "read",
    "time": {
      "samples": {
        "AcquisitionNumber": [
          1,
          2,
          3,
          4,
          5,
          6,
          7,
          8,
          9,
          10,
          11,
          12,
          13,
          14,
          15,
          16,
          17,
          18,
          19,
          20,
          21,
          22,
          23,
          24,
          25,
          26,
          27,
          28,
          29,
          30,
          31,
          32,
          33,
          34,
          35,
          36,
          37,
          38,
          39,
          40,
          41,
          42,
          43,
          44,
          45,
          46,
          47,
          48,
          49,
          50,
          51,
          52,
          53,
          54,
          55,
          56,
          57,
          58,
          59,
          60,
          61,
          62,
          63,
          64,
          65,
          66,
          67,
          68,
          69,
          70,
          71,
          72,
          73,
          74,
          75,
          76,
          77,
          78,
          79,
          80,
          81,
          82,
          83,
          84,
          85,
          86,
          87,
          88,
          89,
          90,
          91,
          92,
          93,
          94,
          95,
          96,
          97,
          98,
          99,
          100,
          101,
          102,
          103,
          104,
          105,
          106,
          107,
          108,
          109,
          110,
          111,
          112,
          113,
          114,
          115,
          116,
          117,
          118,
          119,
          120,
          121,
          122,
          123,
          124,
          125,
          126,
          127
        ],
        "AcquisitionTime": [
          "121754.785000",
          "121757.125000",
          "121759.465000",
          "121801.805000",
          "121804.145000",
          "121806.485000",
          "121808.825000",
          "121811.165000",
          "121813.505000",
          "121815.845000",
          "121818.185000",
          "121820.525000",
          "121822.865000",
          "121825.205000",
          "121827.545000",
          "121829.885000",
          "121832.225000",
          "121834.565000",
          "121836.905000",
          "121839.245000",
          "121841.585000",
          "121843.925000",
          "121846.265000",
          "121848.605000",
          "121850.945000",
          "121853.285000",
          "121855.625000",
          "121857.965000",
          "121900.305000",
          "121902.645000",
          "121904.985000",
          "121907.325000",
          "121909.665000",
          "121912.005000",
          "121914.345000",
          "121916.685000",
          "121919.025000",
          "121921.365000",
          "121923.705000",
          "121926.045000",
          "121928.385000",
          "121930.725000",
          "121933.065000",
          "121935.405000",
          "121937.745000",
          "121940.085000",
          "121942.425000",
          "121944.765000",
          "121947.105000",
          "121949.445000",
          "121951.785000",
          "121954.125000",
          "121956.465000",
          "121958.805000",
          "122001.145000",
          "122003.485000",
          "122005.825000",
          "122008.165000",
          "122010.505000",
          "122012.845000",
          "122015.185000",
          "122017.525000",
          "122019.865000",
          "122022.205000",
          "122024.545000",
          "122026.885000",
          "122029.225000",
          "122031.565000",
          "122033.905000",
          "122036.245000",
          "122038.585000",
          "122040.925000",
          "122043.265000",
          "122045.605000",
          "122047.945000",
          "122050.285000",
          "122052.625000",
          "122054.965000",
          "122057.305000",
          "122059.645000",
          "122101.985000",
          "122104.325000",
          "122106.665000",
          "122109.005000",
          "122111.345000",
          "122113.685000",
          "122116.025000",
          "122118.365000",
          "122120.705000",
          "122123.045000",
          "122125.385000",
          "122127.725000",
          "122130.065000",
          "122132.405000",
          "122134.745000",
          "122137.085000",
          "122139.425000",
          "122141.765000",
          "122144.105000",
          "122146.445000",
          "122148.785000",
          "122151.125000",
          "122153.465000",
          "122155.805000",
          "122158.145000",
          "122200.485000",
          "122202.825000",
          "122205.165000",
          "122207.505000",
          "122209.845000",
          "122212.185000",
          "122214.525000",
          "122216.865000",
          "122219.205000",
          "122221.545000",
          "122223.885000",
          "122226.225000",
          "122228.565000",
          "122230.905000",
          "122233.245000",
          "122235.585000",
          "122237.925000",
          "122240.265000",
          "122242.605000",
          "122244.945000",
          "122247.285000",
          "122249.625000"
        ],
        "ContentTime": [
          "121845.925000",
          "121845.936000",
          "121845.938000",
          "121845.945000",
          "121845.948000",
          "121845.950000",
          "121845.953000",
          "121845.956000",
          "121845.959000",
          "121845.961000",
          "121845.964000",
          "121845.967000",
          "121845.969000",
          "121845.979000",
          "121845.987000",
          "121845.989000",
          "121845.992000",
          "121845.995000",
          "121845.998000",
          "121846.002000",
          "121846.005000",
          "121846.007000",
          "121945.883000",
          "121945.886000",
          "121945.889000",
          "121945.892000",
          "121945.895000",
          "121945.898000",
          "121945.900000",
          "121945.903000",
          "121945.905000",
          "121945.908000",
          "121945.911000",
          "121945.914000",
          "121945.916000",
          "121945.919000",
          "121945.922000",
          "121945.925000",
          "121945.927000",
          "121945.930000",
          "121945.933000",
          "121945.935000",
          "121945.938000",
          "121945.941000",
          "121945.944000",
          "121945.946000",
          "121945.949000",
          "121945.952000",
          "122045.883000",
          "122045.892000",
          "122045.895000",
          "122045.897000",
          "122045.900000",
          "122045.903000",
          "122045.906000",
          "122045.908000",
          "122045.911000",
          "122045.914000",
          "122045.916000",
          "122045.919000",
          "122045.921000",
          "122045.924000",
          "122045.927000",
          "122045.929000",
          "122045.932000",
          "122045.935000",
          "122045.937000",
          "122045.940000",
          "122045.943000",
          "122045.946000",
          "122045.949000",
          "122045.951000",
          "122045.954000",
          "122145.883000",
          "122145.886000",
          "122145.889000",
          "122145.897000",
          "122145.899000",
          "122145.902000",
          "122145.904000",
          "122145.907000",
          "122145.910000",
          "122145.913000",
          "122145.916000",
          "122145.918000",
          "122145.921000",
          "122145.924000",
          "122145.926000",
          "122145.929000",
          "122145.932000",
          "122145.934000",
          "122145.937000",
          "122145.940000",
          "122145.943000",
          "122145.945000",
          "122145.948000",
          "122145.951000",
          "122145.953000",
          "122145.956000",
          "122245.883000",
          "122245.887000",
          "122245.890000",
          "122245.893000",
          "122245.896000",
          "122245.899000",
          "122245.902000",
          "122245.905000",
          "122245.908000",
          "122245.911000",
          "122245.913000",
          "122245.916000",
          "122245.919000",
          "122245.922000",
          "122245.925000",
          "122245.928000",
          "122245.930000",
          "122245.933000",
          "122245.936000",
          "122245.939000",
          "122245.942000",
          "122245.944000",
          "122245.947000",
          "122245.950000",
          "122245.952000",
          "122245.955000",
          "122252.125000",
          "122252.128000"
        ],
        "InstanceCreationTime": [
          "121845.925000",
          "121845.936000",
          "121845.938000",
          "121845.945000",
          "121845.948000",
          "121845.950000",
          "121845.953000",
          "121845.956000",
          "121845.959000",
          "121845.961000",
          "121845.964000",
          "121845.967000",
          "121845.969000",
          "121845.979000",
          "121845.987000",
          "121845.989000",
          "121845.992000",
          "121845.995000",
          "121845.998000",
          "121846.002000",
          "121846.005000",
          "121846.007000",
          "121945.883000",
          "121945.886000",
          "121945.889000",
          "121945.892000",
          "121945.895000",
          "121945.898000",
          "121945.900000",
          "121945.903000",
          "121945.905000",
          "121945.908000",
          "121945.911000",
          "121945.914000",
          "121945.916000",
          "121945.919000",
          "121945.922000",
          "121945.925000",
          "121945.927000",
          "121945.930000",
          "121945.933000",
          "121945.935000",
          "121945.938000",
          "121945.941000",
          "121945.944000",
          "121945.946000",
          "121945.949000",
          "121945.952000",
          "122045.883000",
          "122045.892000",
          "122045.895000",
          "122045.897000",
          "122045.900000",
          "122045.903000",
          "122045.906000",
          "122045.908000",
          "122045.911000",
          "122045.914000",
          "122045.916000",
          "122045.919000",
          "122045.921000",
          "122045.924000",
          "122045.927000",
          "122045.929000",
          "122045.932000",
          "122045.935000",
          "122045.937000",
          "122045.940000",
          "122045.943000",
          "122045.946000",
          "122045.949000",
          "122045.951000",
          "122045.954000",
          "122145.883000",
          "122145.886000",
          "122145.889000",
          "122145.897000",
          "122145.899000",
          "122145.902000",
          "122145.904000",
          "122145.907000",
          "122145.910000",
          "122145.913000",
          "122145.916000",
          "122145.918000",
          "122145.921000",
          "122145.924000",
          "122145.926000",
          "122145.929000",
          "122145.932000",
          "122145.934000",
          "122145.937000",
          "122145.940000",
          "122145.943000",
          "122145.945000",
          "122145.948000",
          "122145.951000",
          "122145.953000",
          "122145.956000",
          "122245.883000",
          "122245.887000",
          "122245.890000",
          "122245.893000",
          "122245.896000",
          "122245.899000",
          "122245.902000",
          "122245.905000",
          "122245.908000",
          "122245.911000",
          "122245.913000",
          "122245.916000",
          "122245.919000",
          "122245.922000",
          "122245.925000",
          "122245.928000",
          "122245.930000",
          "122245.933000",
          "122245.936000",
          "122245.939000",
          "122245.942000",
          "122245.944000",
          "122245.947000",
          "122245.950000",
          "122245.952000",
          "122245.955000",
          "122252.125000",
          "122252.128000"
        ],
        "InstanceNumber": [
          1,
          2,
          3,
          4,
          5,
          6,
          7,
          8,
          9,
          10,
          11,
          12,
          13,
          14,
          15,
          16,
          17,
          18,
          19,
          20,
          21,
          22,
          23,
          24,
          25,
          26,
          27,
          28,
          29,
          30,
          31,
          32,
          33,
          34,
          35,
          36,
          37,
          38,
          39,
          40,
          41,
          42,
          43,
          44,
          45,
          46,
          47,
          48,
          49,
          50,
          51,
          52,
          53,
          54,
          55,
          56,
          57,
          58,
          59,
          60,
          61,
          62,
          63,
          64,
          65,
          66,
          67,
          68,
          69,
          70,
          71,
          72,
          73,
          74,
          75,
          76,
          77,
          78,
          79,
          80,
          81,
          82,
          83,
          84,
          85,
          86,
          87,
          88,
          89,
          90,
          91,
          92,
          93,
          94,
          95,
          96,
          97,
          98,
          99,
          100,
          101,
          102,
          103,
          104,
          105,
          106,
          107,
          108,
          109,
          110,
          111,
          112,
          113,
          114,
          115,
          116,
          117,
          118,
          119,
          120,
          121,
          122,
          123,
          124,
          125,
          126,
          127
        ],
        "LargestImagePixelValue": [
          1977,
          1902,
          1680,
          1552,
          1567,
          1617,
          1869,
          1943,
          1821,
          1873,
          2036,
          1901,
          1951,
          1621,
          1659,
          1746,
          1601,
          1658,
          2035,
          1729,
          1775,
          1669,
          1615,
          1646,
          1712,
          1636,
          1771,
          1959,
          1724,
          1637,
          1585,
          1672,
          1625,
          1834,
          1647,
          1620,
          1703,
          1673,
          1638,
          1668,
          1546,
          1607,
          1574,
          1715,
          1822,
          2102,
          1736,
          1856,
          1646,
          1688,
          1690,
          1646,
          1645,
          1736,
          1933,
          1761,
          1792,
          2001,
          1614,
          1657,
          1638,
          1600,
          1748,
          1748,
          1631,
          1804,
          1749,
          1592,
          1624,
          1632,
          1618,
          1669,
          2053,
          2404,
          1981,
          1629,
          1614,
          1676,
          1656,
          1783,
          1734,
          1740,
          1661,
          2371,
          1576,
          1602,
          1663,
          1669,
          1659,
          1716,
          1628,
          1781,
          1634,
          1844,
          1612,
          1803,
          1617,
          1591,
          1603,
          1640,
          1623,
          1627,
          2024,
          1914,
          1815,
          1694,
          1756,
          1898,
          2083,
          2184,
          2216,
          1694,
          1615,
          1612,
          1534,
          1626,
          1697,
          1893,
          1634,
          1646,
          1682,
          1619,
          1574,
          1623,
          1651,
          1733,
          1643
        ],
        "WindowCenter": [
          757.0,
          756.0,
          755.0,
          756.0,
          759.0,
          756.0,
          756.0,
          758.0,
          754.0,
          756.0,
          755.0,
          752.0,
          755.0,
          754.0,
          755.0,
          753.0,
          752.0,
          753.0,
          748.0,
          744.0,
          746.0,
          748.0,
          750.0,
          753.0,
          758.0,
          757.0,
          758.0,
          762.0,
          754.0,
          757.0,
          759.0,
          758.0,
          756.0,
          762.0,
          755.0,
          760.0,
          753.0,
          760.0,
          757.0,
          762.0,
          757.0,
          760.0,
          759.0,
          762.0,
          760.0,
          760.0,
          759.0,
          758.0,
          757.0,
          758.0,
          760.0,
          763.0,
          760.0,
          759.0,
          760.0,
          760.0,
          759.0,
          759.0,
          760.0,
          758.0,
          759.0,
          765.0,
          759.0,
          759.0,
          757.0,
          759.0,
          761.0,
          760.0,
          760.0,
          763.0,
          764.0,
          765.0,
          763.0,
          761.0,
          756.0,
          759.0,
          759.0,
          760.0,
          759.0,
          761.0,
          759.0,
          762.0,
          760.0,
          762.0,
          756.0,
          763.0,
          760.0,
          762.0,
          760.0,
          764.0,
          760.0,
          762.0,
          761.0,
          759.0,
          759.0,
          763.0,
          761.0,
          767.0,
          762.0,
          762.0,
          763.0,
          765.0,
          762.0,
          763.0,
          760.0,
          765.0,
          760.0,
          763.0,
          757.0,
          760.0,
          751.0,
          758.0,
          759.0,
          765.0,
          761.0,
          760.0,
          763.0,
          760.0,
          755.0,
          759.0,
          759.0,
          763.0,
          764.0,
          765.0,
          762.0,
          764.0,
          763.0
        ],
        "WindowWidth": [
          1604.0,
          1601.0,
          1597.0,
          1599.0,
          1607.0,
          1599.0,
          1600.0,
          1606.0,
          1599.0,
          1600.0,
          1597.0,
          1594.0,
          1598.0,
          1595.0,
          1600.0,
          1595.0,
          1590.0,
          1591.0,
          1581.0,
          1573.0,
          1578.0,
          1583.0,
          1585.0,
          1593.0,
          1605.0,
          1602.0,
          1603.0,
          1615.0,
          1595.0,
          1605.0,
          1608.0,
          1605.0,
          1603.0,
          1614.0,
          1596.0,
          1611.0,
          1596.0,
          1609.0,
          1602.0,
          1616.0,
          1603.0,
          1610.0,
          1610.0,
          1615.0,
          1611.0,
          1611.0,
          1609.0,
          1606.0,
          1603.0,
          1608.0,
          1610.0,
          1620.0,
          1612.0,
          1608.0,
          1611.0,
          1612.0,
          1608.0,
          1611.0,
          1610.0,
          1604.0,
          1608.0,
          1624.0,
          1611.0,
          1609.0,
          1604.0,
          1609.0,
          1614.0,
          1608.0,
          1611.0,
          1622.0,
          1621.0,
          1622.0,
          1618.0,
          1614.0,
          1603.0,
          1608.0,
          1608.0,
          1612.0,
          1610.0,
          1614.0,
          1609.0,
          1615.0,
          1612.0,
          1618.0,
          1602.0,
          1618.0,
          1615.0,
          1615.0,
          1611.0,
          1624.0,
          1613.0,
          1617.0,
          1613.0,
          1612.0,
          1610.0,
          1618.0,
          1612.0,
          1628.0,
          1616.0,
          1616.0,
          1618.0,
          1625.0,
          1619.0,
          1620.0,
          1611.0,
          1624.0,
          1615.0,
          1616.0,
          1603.0,
          1611.0,
          1592.0,
          1606.0,
          1610.0,
          1623.0,
          1616.0,
          1611.0,
          1618.0,
          1608.0,
          1598.0,
          1608.0,
          1609.0,
          1619.0,
          1621.0,
          1626.0,
          1617.0,
          1621.0,
          1620.0
        ]
      },
      "slices": {}
    }
  },
  "dummy_trs": 0,
  "dvars_nstd": 57.67249555468252,
  "dvars_std": 1.19351477547619,
  "dvars_vstd": 1.0186223326190473,
  "efc": 0.5559623445868598,
  "fber": 1631.261962890625,
  "fd_mean": 1.1324304680070905,
  "fd_num": 122,
  "fd_perc": 96.06299212598425,
  "fwhm_avg": 1.6508381892641684,
  "fwhm_x": 1.5633666666666668,
  "fwhm_y": 1.8432266666666666,
  "fwhm_z": 1.5459212344591724,
  "gcor": 0.0688932,
  "gsr_x": -0.0038438565097749233,
  "gsr_y": 0.03587936982512474,
  "provenance": {
    "md5sum": "a92772c8884efc9ce7adac28d042d3e2",
    "settings": {
      "fd_thres": 0.2,
      "testing": false
    },
    "software": "mriqc",
    "version": "22.0.1",
    "webapi_port": null,
    "webapi_url": "https://mriqc.nimh.nih.gov/api/v1"
  },
  "size_t": 127,
  "size_x": 64,
  "size_y": 64,
  "size_z": 34,
  "snr": 7.2575532951274715,
  "spacing_tr": 2.3399999141693115,
  "spacing_x": 3.0,
  "spacing_y": 3.0,
  "spacing_z": 3.299999952316284,
  "summary_bg_k": 54.586767147516554,
  "summary_bg_mad": 8.41697605650549,
  "summary_bg_mean": 32.62016296386719,
  "summary_bg_median": 21.181102752685547,
  "summary_bg_n": 75625.0,
  "summary_bg_p05": 12.291338920593262,
  "summary_bg_p95": 86.55275268554696,
  "summary_bg_stdv": 39.5073127746582,
  "summary_fg_k": 2.4418934302892215,
  "summary_fg_mad": 116.0106826451763,
  "summary_fg_mean": 874.3987426757812,
  "summary_fg_median": 873.8858642578125,
  "summary_fg_n": 32282.0,
  "summary_fg_p05": 693.9940948486328,
  "summary_fg_p95": 1055.328723144531,
  "summary_fg_stdv": 120.4086685180664,
  "tsnr": 32.38149454060476
}