{
  "aor": 0.008382222222222221,
  "aqi": 0.021403577936507937,
  "bids_meta": {
    "AcquisitionMatrixPE": 64,
    "AcquisitionNumber": 1,
    "AcquisitionTime": "09:26:41.880000",
    "BandwidthPerPixelPhaseEncode": 24.038,
    "BaseResolution": 64,
    "BodyPartExamined": "HEAD",
    "ConsistencyInfo": "N4_VD13A_LATEST_20120616",
    "ConversionSoftware": "dcm2niix",
    "ConversionSoftwareVersion": "v1.0.20181125  GCC6.3.0",
    "DerivedVendorReportedEchoSpacing": 0.000650012,
    "DeviceSerialNumber": "45250",
    "DwellTime": 4.6e-06,
    "EchoTime": 0.033,
    "EchoTrainLength": 64,
    "EffectiveEchoSpacing": 0.000650012,
    "FlipAngle": 90,
    "ImageOrientationPatientDICOM": [
      0.999919,
      0.00125033,
      -0.0126424,
      -0.00349042,
      0.983886,
      -0.17876
    ],
    "ImageType": [
      "ORIGINAL",
      "PRIMARY",
      "M",
      "ND",
      "NORM",
      "MOSAIC"
    ],
    "ImagingFrequency": 123.22,
    "InPlanePhaseEncodingDirectionDICOM": "COL",
    "InstitutionAddress": "Kopernikusstr._26_Graz_Graz_AT_8010",
    "InstitutionName": "KFU",
    "InstitutionalDepartmentName": "Department",
    "MRAcquisitionType": "2D",
    "MagneticFieldStrength": 3,
    "Manufacturer": "Siemens",
    "ManufacturersModelName": "Skyra",
    "Modality": "MR",
    "PartialFourier": 1,
    "PatientPosition": "HFS",
    "PercentPhaseFOV": 100,
    "PhaseEncodingDirection": "j-",
    "PhaseEncodingSteps": 64,
    "PhaseResolution": 1,
    "PixelBandwidth": 1700,
    "ProcedureStepDescription": "KFU_Entw-Psy",
    "ProtocolName": "fMRI_1",
    "PulseSequenceDetails": "%SiemensSeq%_ep2d_pace",
    "ReceiveCoilActiveElements": "HE1-4",
    "ReceiveCoilName": "HeadNeck_20",
    "ReconMatrixPE": 64,
    "RepetitionTime": 2.34,
    "SAR": 0.165592,
    "ScanOptions": "FS",
    "ScanningSequence": "EP",
    "SequenceName": "_epfid2d1_64",
    "SequenceVariant": "SK",
    "SeriesDescription": "fMRI_1",
    "SeriesNumber": 2,
    "ShimSetting": [
      -1613,
      -3679,
      -4189,
      592,
      405,
      32,
      21,
      -195
    ],
    "SliceThickness": 3,
    "SliceTiming": [
      2.25,
      2.1825,
      2.115,
      2.045,
      1.9775,
      1.91,
      1.8425,
      1.7725,
      1.705,
      1.6375,
      1.5675,
      1.5,
      1.4325,
      1.3625,
      1.295,
      1.2275,
      1.16,
      1.09,
      1.0225,
      0.955,
      0.885,
      0.8175,
      0.75,
      0.6825,
      0.6125,
      0.545,
      0.4775,
      0.4075,
      0.34,
      0.2725,
      0.205,
      0.135,
      0.0675,
      0
    ],
    "SoftwareVersions": "syngo_MR_D13",
    "SpacingBetweenSlices": 3.3,
    "StationName": "FBMTMR1",
    "TaskName": "read",
    "TotalReadoutTime": 0.0409508,
    "TxRefAmp": 329.605,
    "dataset": "ds003126",
    "dcmmeta_affine": [
      [
        -2.999758005142212,
        -0.010471269488334656,
        -0.04030995070934296,
        96.41464233398438
      ],
      [
        -0.0037510041147470474,
        2.9516592025756836,
        -0.590007483959198,
        -108.10391998291016
      ],
      [
        -0.03792707994580269,
        0.5362813472747803,
        3.246577501296997,
        -12.323657989501953
      ],
      [
        0.0,
        0.0,
        0.0,
        1.0
      ]
    ],
    "dcmmeta_reorient_transform": [
      [
        0.0,
        -1.0,
        0.0,
        63.0
      ],
      [
        1.0,
        0.0,
        0.0,
        0.0
      ],
      [
        0.0,
        0.0,
        1.0,
        0.0
      ],
      [
        0.0,
        0.0,
        0.0,
        1.0
      ]
    ],
    "dcmmeta_shape": [
      64,
      64,
      34,
      126
    ],
    "dcmmeta_slice_dim": 2,
    "dcmmeta_version": 0.6,
    "global": {
      "const": {
        "AcquisitionMatrix": [
          64,
          0,
          0,
          64
        ],
        "AngioFlag": "N",
        "BitsAllocated": 16,
        "BitsStored": 12,
        "BodyPartExamined": "HEAD",
        "Columns": 384,
        "EchoNumbers": 1,
        "EchoTime": 33.0,
        "EchoTrainLength": 64,
        "FlipAngle": 90.0,
        "HighBit": 11,
        "ImageOrientationPatient": [
          0.99991930043478,
          0.00125033472485,
          -0.0126423605826,
          -0.0034904232131,
          0.98388643436825,
          -0.1787604576295
        ],
        "ImagePositionPatient": [
          -574.04081276229,
          -550.71626579877,
          113.3354213424
        ],
        "ImageType": [
          "ORIGINAL",
          "PRIMARY",
          "M",
          "ND",
          "NORM",
          "MOSAIC"
        ],
        "ImagedNucleus": "1H",
        "ImagingFrequency": 123.219947,
        "InPlanePhaseEncodingDirection": "COL",
        "MRAcquisitionType": "2D",
        "MagneticFieldStrength": 3.0,
        "Manufacturer": "SIEMENS",
        "ManufacturerModelName": "Skyra",
        "Modality": "MR",
        "NumberOfAverages": 1.0,
        "NumberOfPhaseEncodingSteps": 64,
        "PercentPhaseFieldOfView": 100.0,
        "PercentSampling": 100.0,
        "PerformedProcedureStepStartTime": "091817.562000",
        "PhotometricInterpretation": "MONOCHROME2",
        "PixelBandwidth": 1700.0,
        "PixelRepresentation": 0,
        "PixelSpacing": [
          3.0,
          3.0
        ],
        "ProtocolName": "fMRI_1",
        "RepetitionTime": 2340.0,
        "Rows": 384,
        "SAR": 0.1655917420263,
        "SamplesPerPixel": 1,
        "ScanOptions": "FS",
        "ScanningSequence": "EP",
        "SequenceName": "*epfid2d1_64",
        "SequenceVariant": "SK",
        "SeriesDescription": "fMRI_1",
        "SeriesNumber": 2,
        "SeriesTime": "092740.565000",
        "SliceLocation": 6.0260438008669,
        "SliceThickness": 3.0,
        "SmallestImagePixelValue": 0,
        "SoftwareVersions": "syngo MR D13",
        "SpacingBetweenSlices": 3.2999999153607,
        "SpecificCharacterSet": "ISO_IR 100",
        "StudyID": "1",
        "StudyTime": "091817.511000",
        "TransmitCoilName": "Body",
        "VariableFlipAngleFlag": "N",
        "WindowCenterWidthExplanation": "Algo1",
        "dBdt": 0.0
      },
      "slices": {}
    },
    "modality": "bold",
    "run_id": 1,
    "session_id": "2",
    "subject_id": "047EPKL011056",
    "task_id": "read",
    "time": {
      "samples": {
        "AcquisitionNumber": [
          1,
          2,
          3,
          4,
          5,
          6,
          7,
          8,
          9,
          10,
          11,
          12,
          13,
          14,
          15,
          16,
          17,
          18,
          19,
          20,
          21,
          22,
          23,
          24,
          25,
          26,
          27,
          28,
          29,
          30,
          31,
          32,
          33,
          34,
          35,
          36,
          37,
          38,
          39,
          40,
          41,
          42,
          43,
          44,
          45,
          46,
          47,
          48,
          49,
          50,
          51,
          52,
          53,
          54,
          55,
          56,
          57,
          58,
          59,
          60,
          61,
          62,
          63,
          64,
          65,
          66,
          67,
          68,
          69,
          70,
          71,
          72,
          73,
          74,
          75,
          76,
          77,
          78,
          79,
          80,
          81,
          82,
          83,
          84,
          85,
          86,
          87,
          88,
          89,
          90,
          91,
          92,
          93,
          94,
          95,
          96,
          97,
          98,
          99,
          100,
          101,
          102,
          103,
          104,
          105,
          106,
          107,
          108,
          109,
          110,
          111,
          112,
          113,
          114,
          115,
          116,
          117,
          118,
          119,
          120,
          121,
          122,
          123,
          124,
          125,
          126
        ],
        "AcquisitionTime": [
          "092641.880000",
          "092644.220000",
          "092646.560000",
          "092648.900000",
          "092651.240000",
          "092653.580000",
          "092655.920000",
          "092658.260000",
          "092700.600000",
          "092702.940000",
          "092705.280000",
          "092707.620000",
          "092709.960000",
          "092712.300000",
          "092714.640000",
          "092716.980000",
          "092719.320000",
          "092721.660000",
          "092724.000000",
          "092726.340000",
          "092728.680000",
          "092731.020000",
          "092733.360000",
          "092735.700000",
          "092738.040000",
          "092740.380000",
          "092742.720000",
          "092745.060000",
          "092747.400000",
          "092749.740000",
          "092752.080000",
          "092754.420000",
          "092756.760000",
          "092759.100000",
          "092801.440000",
          "092803.780000",
          "092806.120000",
          "092808.460000",
          "092810.800000",
          "092813.140000",
          "092815.480000",
          "092817.820000",
          "092820.160000",
          "092822.500000",
          "092824.840000",
          "092827.180000",
          "092829.520000",
          "092831.860000",
          "092834.200000",
          "092836.540000",
          "092838.880000",
          "092841.220000",
          "092843.560000",
          "092845.900000",
          "092848.240000",
          "092850.580000",
          "092852.920000",
          "092855.260000",
          "092857.600000",
          "092859.940000",
          "092902.280000",
          "092904.620000",
          "092906.960000",
          "092909.300000",
          "092911.640000",
          "092913.980000",
          "092916.320000",
          "092918.660000",
          "092921.000000",
          "092923.340000",
          "092925.680000",
          "092928.020000",
          "092930.360000",
          "092932.700000",
          "092935.040000",
          "092937.380000",
          "092939.720000",
          "092942.060000",
          "092944.400000",
          "092946.740000",
          "092949.080000",
          "092951.420000",
          "092953.760000",
          "092956.100000",
          "092958.440000",
          "093000.780000",
          "093003.120000",
          "093005.460000",
          "093007.800000",
          "093010.140000",
          "093012.480000",
          "093014.820000",
          "093017.160000",
          "093019.500000",
          "093021.840000",
          "093024.180000",
          "093026.520000",
          "093028.860000",
          "093031.200000",
          "093033.540000",
          "093035.880000",
          "093038.220000",
          "093040.560000",
          "093042.900000",
          "093045.240000",
          "093047.580000",
          "093049.920000",
          "093052.260000",
          "093054.600000",
          "093056.940000",
          "093059.280000",
          "093101.620000",
          "093103.960000",
          "093106.300000",
          "093108.640000",
          "093110.980000",
          "093113.320000",
          "093115.660000",
          "093118.000000",
          "093120.340000",
          "093122.680000",
          "093125.020000",
          "093127.360000",
          "093129.700000",
          "093132.040000",
          "093134.380000"
        ],
        "ContentTime": [
          "092740.569000",
          "092740.573000",
          "092740.576000",
          "092740.578000",
          "092740.581000",
          "092740.585000",
          "092740.588000",
          "092740.590000",
          "092740.593000",
          "092740.596000",
          "092740.598000",
          "092740.601000",
          "092740.604000",
          "092740.606000",
          "092740.609000",
          "092740.611000",
          "092740.614000",
          "092740.617000",
          "092740.619000",
          "092740.622000",
          "092740.625000",
          "092740.627000",
          "092740.630000",
          "092740.633000",
          "092740.635000",
          "092740.638000",
          "092840.564000",
          "092840.567000",
          "092840.570000",
          "092840.573000",
          "092840.576000",
          "092840.579000",
          "092840.582000",
          "092840.585000",
          "092840.587000",
          "092840.590000",
          "092840.593000",
          "092840.596000",
          "092840.599000",
          "092840.602000",
          "092840.604000",
          "092840.607000",
          "092840.610000",
          "092840.612000",
          "092840.615000",
          "092840.618000",
          "092840.620000",
          "092840.623000",
          "092840.626000",
          "092840.628000",
          "092840.631000",
          "092940.563000",
          "092940.567000",
          "092940.570000",
          "092940.573000",
          "092940.575000",
          "092940.578000",
          "092940.581000",
          "092940.584000",
          "092940.587000",
          "092940.590000",
          "092940.592000",
          "092940.595000",
          "092940.598000",
          "092940.601000",
          "092940.604000",
          "092940.607000",
          "092940.610000",
          "092940.612000",
          "092940.615000",
          "092940.618000",
          "092940.621000",
          "092940.624000",
          "092940.626000",
          "092940.629000",
          "092940.632000",
          "092940.635000",
          "093040.564000",
          "093040.567000",
          "093040.570000",
          "093040.573000",
          "093040.575000",
          "093040.578000",
          "093040.581000",
          "093040.583000",
          "093040.586000",
          "093040.589000",
          "093040.602000",
          "093040.604000",
          "093040.607000",
          "093040.610000",
          "093040.612000",
          "093040.615000",
          "093040.618000",
          "093040.620000",
          "093040.623000",
          "093040.627000",
          "093040.631000",
          "093040.634000",
          "093040.636000",
          "093040.639000",
          "093040.642000",
          "093136.682000",
          "093136.685000",
          "093136.688000",
          "093136.693000",
          "093136.697000",
          "093136.700000",
          "093136.703000",
          "093136.707000",
          "093136.709000",
          "093136.712000",
          "093136.715000",
          "093136.731000",
          "093136.734000",
          "093136.737000",
          "093136.742000",
          "093136.746000",
          "093136.749000",
          "093136.752000",
          "093136.755000",
          "093136.758000",
          "093136.761000",
          "093136.764000",
          "093136.767000",
          "093136.770000"
        ],
        "InstanceCreationTime": [
          "092740.569000",
          "092740.573000",
          "092740.576000",
          "092740.578000",
          "092740.581000",
          "092740.585000",
          "092740.588000",
          "092740.590000",
          "092740.593000",
          "092740.596000",
          "092740.598000",
          "092740.601000",
          "092740.604000",
          "092740.606000",
          "092740.609000",
          "092740.611000",
          "092740.614000",
          "092740.617000",
          "092740.619000",
          "092740.622000",
          "092740.625000",
          "092740.627000",
          "092740.630000",
          "092740.633000",
          "092740.635000",
          "092740.638000",
          "092840.564000",
          "092840.567000",
          "092840.570000",
          "092840.573000",
          "092840.576000",
          "092840.579000",
          "092840.582000",
          "092840.585000",
          "092840.587000",
          "092840.590000",
          "092840.593000",
          "092840.596000",
          "092840.599000",
          "092840.602000",
          "092840.604000",
          "092840.607000",
          "092840.610000",
          "092840.612000",
          "092840.615000",
          "092840.618000",
          "092840.620000",
          "092840.623000",
          "092840.626000",
          "092840.628000",
          "092840.631000",
          "092940.563000",
          "092940.567000",
          "092940.570000",
          "092940.573000",
          "092940.575000",
          "092940.578000",
          "092940.581000",
          "092940.584000",
          "092940.587000",
          "092940.590000",
          "092940.592000",
          "092940.595000",
          "092940.598000",
          "092940.601000",
          "092940.604000",
          "092940.607000",
          "092940.610000",
          "092940.612000",
          "092940.615000",
          "092940.618000",
          "092940.621000",
          "092940.624000",
          "092940.626000",
          "092940.629000",
          "092940.632000",
          "092940.635000",
          "093040.564000",
          "093040.567000",
          "093040.570000",
          "093040.573000",
          "093040.575000",
          "093040.578000",
          "093040.581000",
          "093040.583000",
          "093040.586000",
          "093040.589000",
          "093040.602000",
          "093040.604000",
          "093040.607000",
          "093040.610000",
          "093040.612000",
          "093040.615000",
          "093040.618000",
          "093040.620000",
          "093040.623000",
          "093040.627000",
          "093040.631000",
          "093040.634000",
          "093040.636000",
          "093040.639000",
          "093040.642000",
          "093136.682000",
          "093136.685000",
          "093136.688000",
          "093136.693000",
          "093136.697000",
          "093136.700000",
          "093136.703000",
          "093136.707000",
          "093136.709000",
          "093136.712000",
          "093136.715000",
          "093136.731000",
          "093136.734000",
          "093136.737000",
          "093136.742000",
          "093136.746000",
          "093136.749000",
          "093136.752000",
          "093136.755000",
          "093136.758000",
          "093136.761000",
          "093136.764000",
          "093136.767000",
          "093136.770000"
        ],
        "InstanceNumber": [
          1,
          2,
          3,
          4,
          5,
          6,
          7,
          8,
          9,
          10,
          11,
          12,
          13,
          14,
          15,
          16,
          17,
          18,
          19,
          20,
          21,
          22,
          23,
          24,
          25,
          26,
          27,
          28,
          29,
          30,
          31,
          32,
          33,
          34,
          35,
          36,
          37,
          38,
          39,
          40,
          41,
          42,
          43,
          44,
          45,
          46,
          47,
          48,
          49,
          50,
          51,
          52,
          53,
          54,
          55,
          56,
          57,
          58,
          59,
          60,
          61,
          62,
          63,
          64,
          65,
          66,
          67,
          68,
          69,
          70,
          71,
          72,
          73,
          74,
          75,
          76,
          77,
          78,
          79,
          80,
          81,
          82,
          83,
          84,
          85,
          86,
          87,
          88,
          89,
          90,
          91,
          92,
          93,
          94,
          95,
          96,
          97,
          98,
          99,
          100,
          101,
          102,
          103,
          104,
          105,
          106,
          107,
          108,
          109,
          110,
          111,
          112,
          113,
          114,
          115,
          116,
          117,
          118,
          119,
          120,
          121,
          122,
          123,
          124,
          125,
          126
        ],
        "LargestImagePixelValue": [
          2039,
          2007,
          2093,
          2272,
          2215,
          1993,
          2653,
          2529,
          1815,
          2028,
          2390,
          1932,
          1796,
          2154,
          2201,
          2365,
          1995,
          1997,
          1903,
          2080,
          2109,
          1795,
          1976,
          2394,
          1694,
          1796,
          1833,
          2037,
          2143,
          2063,
          1832,
          1978,
          2471,
          1734,
          1775,
          1793,
          2056,
          2349,
          2197,
          1855,
          1702,
          2195,
          1800,
          2411,
          2092,
          2326,
          1724,
          2433,
          1845,
          2204,
          2529,
          1858,
          2043,
          1762,
          1839,
          1825,
          1709,
          2151,
          2209,
          2155,
          1869,
          2767,
          1777,
          1963,
          2002,
          1811,
          1939,
          1843,
          2199,
          1813,
          1826,
          2140,
          1880,
          1741,
          1790,
          2186,
          2403,
          2353,
          1764,
          1959,
          1782,
          2491,
          1924,
          2641,
          1776,
          2728,
          2723,
          1924,
          1835,
          2053,
          2162,
          2097,
          1940,
          2340,
          3045,
          2746,
          1733,
          1778,
          2293,
          1999,
          1765,
          1768,
          1910,
          2026,
          2525,
          2990,
          2441,
          1885,
          2666,
          2428,
          1801,
          2419,
          2828,
          1890,
          1911,
          1762,
          1746,
          1673,
          1990,
          2588,
          1809,
          1834,
          1893,
          2661,
          1958,
          1757
        ],
        "WindowCenter": [
          811.0,
          810.0,
          810.0,
          810.0,
          810.0,
          809.0,
          809.0,
          809.0,
          808.0,
          809.0,
          809.0,
          808.0,
          808.0,
          810.0,
          806.0,
          807.0,
          806.0,
          808.0,
          809.0,
          810.0,
          808.0,
          808.0,
          809.0,
          809.0,
          809.0,
          809.0,
          808.0,
          809.0,
          807.0,
          807.0,
          807.0,
          809.0,
          809.0,
          808.0,
          808.0,
          808.0,
          809.0,
          810.0,
          809.0,
          805.0,
          808.0,
          811.0,
          808.0,
          809.0,
          807.0,
          807.0,
          808.0,
          811.0,
          807.0,
          809.0,
          809.0,
          810.0,
          808.0,
          812.0,
          810.0,
          809.0,
          811.0,
          814.0,
          811.0,
          809.0,
          811.0,
          812.0,
          812.0,
          813.0,
          810.0,
          807.0,
          808.0,
          808.0,
          808.0,
          809.0,
          810.0,
          809.0,
          811.0,
          811.0,
          812.0,
          811.0,
          807.0,
          807.0,
          807.0,
          810.0,
          810.0,
          814.0,
          811.0,
          814.0,
          810.0,
          810.0,
          808.0,
          811.0,
          809.0,
          810.0,
          810.0,
          810.0,
          810.0,
          811.0,
          812.0,
          808.0,
          809.0,
          810.0,
          809.0,
          808.0,
          807.0,
          814.0,
          811.0,
          811.0,
          809.0,
          813.0,
          810.0,
          811.0,
          813.0,
          814.0,
          811.0,
          814.0,
          810.0,
          810.0,
          813.0,
          812.0,
          814.0,
          815.0,
          813.0,
          815.0,
          815.0,
          815.0,
          815.0,
          817.0,
          813.0,
          815.0
        ],
        "WindowWidth": [
          1721.0,
          1719.0,
          1720.0,
          1722.0,
          1721.0,
          1718.0,
          1718.0,
          1717.0,
          1714.0,
          1718.0,
          1717.0,
          1716.0,
          1715.0,
          1719.0,
          1710.0,
          1712.0,
          1710.0,
          1713.0,
          1715.0,
          1718.0,
          1715.0,
          1713.0,
          1716.0,
          1719.0,
          1715.0,
          1717.0,
          1713.0,
          1715.0,
          1711.0,
          1713.0,
          1712.0,
          1715.0,
          1718.0,
          1714.0,
          1713.0,
          1714.0,
          1717.0,
          1721.0,
          1718.0,
          1705.0,
          1713.0,
          1723.0,
          1713.0,
          1717.0,
          1711.0,
          1713.0,
          1713.0,
          1723.0,
          1712.0,
          1716.0,
          1716.0,
          1718.0,
          1713.0,
          1723.0,
          1719.0,
          1718.0,
          1720.0,
          1730.0,
          1723.0,
          1718.0,
          1720.0,
          1726.0,
          1724.0,
          1729.0,
          1720.0,
          1711.0,
          1714.0,
          1713.0,
          1714.0,
          1717.0,
          1720.0,
          1718.0,
          1721.0,
          1720.0,
          1723.0,
          1721.0,
          1714.0,
          1713.0,
          1709.0,
          1718.0,
          1719.0,
          1728.0,
          1720.0,
          1730.0,
          1720.0,
          1721.0,
          1715.0,
          1720.0,
          1718.0,
          1720.0,
          1722.0,
          1720.0,
          1719.0,
          1722.0,
          1725.0,
          1715.0,
          1718.0,
          1722.0,
          1717.0,
          1716.0,
          1711.0,
          1730.0,
          1723.0,
          1722.0,
          1719.0,
          1729.0,
          1719.0,
          1724.0,
          1728.0,
          1730.0,
          1722.0,
          1730.0,
          1722.0,
          1721.0,
          1726.0,
          1725.0,
          1731.0,
          1732.0,
          1728.0,
          1734.0,
          1733.0,
          1733.0,
          1733.0,
          1740.0,
          1729.0,
          1733.0
        ]
      },
      "slices": {}
    }
  },
  "dummy_trs": 0,
  "dvars_nstd": 43.75793070999999,
  "dvars_std": 1.3553822260800004,
  "dvars_vstd": 1.09397751888,
  "efc": 0.5754210611695305,
  "fber": 1659.1591796875,
  "fd_mean": 0.6676515748303664,
  "fd_num": 112,
  "fd_perc": 88.88888888888889,
  "fwhm_avg": 1.6351087953850545,
  "fwhm_x": 1.5300833333333335,
  "fwhm_y": 1.8168066666666667,
  "fwhm_z": 1.558436386155163,
  "gcor": 0.0443326,
  "gsr_x": 0.007128285244107246,
  "gsr_y": 0.041595038026571274,
  "provenance": {
    "md5sum": "57727cc4344e873be6b2285969a76a90",
    "settings": {
      "fd_thres": 0.2,
      "testing": false
    },
    "software": "mriqc",
    "version": "22.0.1",
    "webapi_port": null,
    "webapi_url": "https://mriqc.nimh.nih.gov/api/v1"
  },
  "size_t": 126,
  "size_x": 64,
  "size_y": 64,
  "size_z": 34,
  "snr": 7.330497508611241,
  "spacing_tr": 2.3399999141693115,
  "spacing_x": 3.0,
  "spacing_y": 3.0,
  "spacing_z": 3.299999952316284,
  "summary_bg_k": 38.02657713546719,
  "summary_bg_mad": 10.990085019449,
  "summary_bg_mean": 39.53799057006836,
  "summary_bg_median": 22.43651008605957,
  "summary_bg_n": 72481.0,
  "summary_bg_p05": 11.833333969116211,
  "summary_bg_p95": 114.15080261230469,
  "summary_bg_stdv": 58.93878173828125,
  "summary_fg_k": 2.3065513474476935,
  "summary_fg_mad": 123.9208505119029,
  "summary_fg_mean": 943.366455078125,
  "summary_fg_median": 939.9088134765625,
  "summary_fg_n": 34388.0,
  "summary_fg_p05": 753.7964782714844,
  "summary_fg_p95": 1144.325439453125,
  "summary_fg_stdv": 128.21710205078125,
  "tsnr": 46.228855438064784
}