{
  "aor": 0.006547322834645671,
  "aqi": 0.014889265433070868,
  "bids_meta": {
    "AcquisitionMatrixPE": 64,
    "AcquisitionNumber": 1,
    "AcquisitionTime": "09:38:30.952500",
    "BandwidthPerPixelPhaseEncode": 24.038,
    "BaseResolution": 64,
    "BodyPartExamined": "HEAD",
    "ConsistencyInfo": "N4_VD13A_LATEST_20120616",
    "ConversionSoftware": "dcm2niix",
    "ConversionSoftwareVersion": "v1.0.20181125  GCC6.3.0",
    "DerivedVendorReportedEchoSpacing": 0.000650012,
    "DeviceSerialNumber": "45250",
    "DwellTime": 4.6e-06,
    "EchoTime": 0.033,
    "EchoTrainLength": 64,
    "EffectiveEchoSpacing": 0.000650012,
    "FlipAngle": 90,
    "ImageOrientationPatientDICOM": [
      0.999919,
      0.00125033,
      -0.0126424,
      -0.00349042,
      0.983886,
      -0.17876
    ],
    "ImageType": [
      "ORIGINAL",
      "PRIMARY",
      "M",
      "ND",
      "NORM",
      "MOSAIC"
    ],
    "ImagingFrequency": 123.22,
    "InPlanePhaseEncodingDirectionDICOM": "COL",
    "InstitutionAddress": "Kopernikusstr._26_Graz_Graz_AT_8010",
    "InstitutionName": "KFU",
    "InstitutionalDepartmentName": "Department",
    "MRAcquisitionType": "2D",
    "MagneticFieldStrength": 3,
    "Manufacturer": "Siemens",
    "ManufacturersModelName": "Skyra",
    "Modality": "MR",
    "PartialFourier": 1,
    "PatientPosition": "HFS",
    "PercentPhaseFOV": 100,
    "PhaseEncodingDirection": "j-",
    "PhaseEncodingSteps": 64,
    "PhaseResolution": 1,
    "PixelBandwidth": 1700,
    "ProcedureStepDescription": "KFU_Entw-Psy",
    "ProtocolName": "fMRI_3",
    "PulseSequenceDetails": "%SiemensSeq%_ep2d_pace",
    "ReceiveCoilActiveElements": "HE1-4",
    "ReceiveCoilName": "HeadNeck_20",
    "ReconMatrixPE": 64,
    "RepetitionTime": 2.34,
    "SAR": 0.165592,
    "ScanOptions": "FS",
    "ScanningSequence": "EP",
    "SequenceName": "_epfid2d1_64",
    "SequenceVariant": "SK",
    "SeriesDescription": "fMRI_3",
    "SeriesNumber": 8,
    "ShimSetting": [
      -1613,
      -3679,
      -4189,
      592,
      405,
      32,
      21,
      -195
    ],
    "SliceThickness": 3,
    "SliceTiming": [
      2.25,
      2.1825,
      2.115,
      2.045,
      1.9775,
      1.91,
      1.84,
      1.7725,
      1.705,
      1.6375,
      1.5675,
      1.5,
      1.4325,
      1.3625,
      1.295,
      1.2275,
      1.16,
      1.09,
      1.0225,
      0.955,
      0.885,
      0.8175,
      0.75,
      0.68,
      0.6125,
      0.545,
      0.4775,
      0.4075,
      0.34,
      0.2725,
      0.2025,
      0.135,
      0.0675,
      0
    ],
    "SoftwareVersions": "syngo_MR_D13",
    "SpacingBetweenSlices": 3.3,
    "StationName": "FBMTMR1",
    "TaskName": "read",
    "TotalReadoutTime": 0.0409508,
    "TxRefAmp": 329.605,
    "dataset": "ds003126",
    "dcmmeta_affine": [
      [
        -2.999758005142212,
        -0.010471269488334656,
        -0.04030995070934296,
        96.41464233398438
      ],
      [
        -0.0037510041147470474,
        2.9516592025756836,
        -0.590007483959198,
        -108.10391998291016
      ],
      [
        -0.03792707994580269,
        0.5362813472747803,
        3.246577501296997,
        -12.323657989501953
      ],
      [
        0.0,
        0.0,
        0.0,
        1.0
      ]
    ],
    "dcmmeta_reorient_transform": [
      [
        0.0,
        -1.0,
        0.0,
        63.0
      ],
      [
        1.0,
        0.0,
        0.0,
        0.0
      ],
      [
        0.0,
        0.0,
        1.0,
        0.0
      ],
      [
        0.0,
        0.0,
        0.0,
        1.0
      ]
    ],
    "dcmmeta_shape": [
      64,
      64,
      34,
      127
    ],
    "dcmmeta_slice_dim": 2,
    "dcmmeta_version": 0.6,
    "global": {
      "const": {
        "AcquisitionMatrix": [
          64,
          0,
          0,
          64
        ],
        "AngioFlag": "N",
        "BitsAllocated": 16,
        "BitsStored": 12,
        "BodyPartExamined": "HEAD",
        "Columns": 384,
        "EchoNumbers": 1,
        "EchoTime": 33.0,
        "EchoTrainLength": 64,
        "FlipAngle": 90.0,
        "HighBit": 11,
        "ImageOrientationPatient": [
          0.99991930043478,
          0.00125033472485,
          -0.0126423605826,
          -0.0034904232131,
          0.98388643436825,
          -0.1787604576295
        ],
        "ImagePositionPatient": [
          -574.04081276229,
          -550.71626579877,
          113.3354213424
        ],
        "ImageType": [
          "ORIGINAL",
          "PRIMARY",
          "M",
          "ND",
          "NORM",
          "MOSAIC"
        ],
        "ImagedNucleus": "1H",
        "ImagingFrequency": 123.219966,
        "InPlanePhaseEncodingDirection": "COL",
        "MRAcquisitionType": "2D",
        "MagneticFieldStrength": 3.0,
        "Manufacturer": "SIEMENS",
        "ManufacturerModelName": "Skyra",
        "Modality": "MR",
        "NumberOfAverages": 1.0,
        "NumberOfPhaseEncodingSteps": 64,
        "PercentPhaseFieldOfView": 100.0,
        "PercentSampling": 100.0,
        "PerformedProcedureStepStartTime": "091817.562000",
        "PhotometricInterpretation": "MONOCHROME2",
        "PixelBandwidth": 1700.0,
        "PixelRepresentation": 0,
        "PixelSpacing": [
          3.0,
          3.0
        ],
        "ProtocolName": "fMRI_3",
        "RepetitionTime": 2340.0,
        "Rows": 384,
        "SAR": 0.1655917420263,
        "SamplesPerPixel": 1,
        "ScanOptions": "FS",
        "ScanningSequence": "EP",
        "SequenceName": "*epfid2d1_64",
        "SequenceVariant": "SK",
        "SeriesDescription": "fMRI_3",
        "SeriesNumber": 8,
        "SeriesTime": "093932.153000",
        "SliceLocation": 6.0260438008669,
        "SliceThickness": 3.0,
        "SmallestImagePixelValue": 0,
        "SoftwareVersions": "syngo MR D13",
        "SpacingBetweenSlices": 3.2999999153607,
        "SpecificCharacterSet": "ISO_IR 100",
        "StudyID": "1",
        "StudyTime": "091817.511000",
        "TransmitCoilName": "Body",
        "VariableFlipAngleFlag": "N",
        "WindowCenterWidthExplanation": "Algo1",
        "dBdt": 0.0
      },
      "slices": {}
    },
    "modality": "bold",
    "run_id": 3,
    "session_id": "2",
    "subject_id": "047EPKL011056",
    "task_id": "read",
    "time": {
      "samples": {
        "AcquisitionNumber": [
          1,
          2,
          3,
          4,
          5,
          6,
          7,
          8,
          9,
          10,
          11,
          12,
          13,
          14,
          15,
          16,
          17,
          18,
          19,
          20,
          21,
          22,
          23,
          24,
          25,
          26,
          27,
          28,
          29,
          30,
          31,
          32,
          33,
          34,
          35,
          36,
          37,
          38,
          39,
          40,
          41,
          42,
          43,
          44,
          45,
          46,
          47,
          48,
          49,
          50,
          51,
          52,
          53,
          54,
          55,
          56,
          57,
          58,
          59,
          60,
          61,
          62,
          63,
          64,
          65,
          66,
          67,
          68,
          69,
          70,
          71,
          72,
          73,
          74,
          75,
          76,
          77,
          78,
          79,
          80,
          81,
          82,
          83,
          84,
          85,
          86,
          87,
          88,
          89,
          90,
          91,
          92,
          93,
          94,
          95,
          96,
          97,
          98,
          99,
          100,
          101,
          102,
          103,
          104,
          105,
          106,
          107,
          108,
          109,
          110,
          111,
          112,
          113,
          114,
          115,
          116,
          117,
          118,
          119,
          120,
          121,
          122,
          123,
          124,
          125,
          126,
          127
        ],
        "AcquisitionTime": [
          "093830.952500",
          "093833.292500",
          "093835.632500",
          "093837.972500",
          "093840.312500",
          "093842.652500",
          "093844.992500",
          "093847.332500",
          "093849.672500",
          "093852.012500",
          "093854.352500",
          "093856.692500",
          "093859.032500",
          "093901.372500",
          "093903.712500",
          "093906.052500",
          "093908.392500",
          "093910.732500",
          "093913.072500",
          "093915.412500",
          "093917.752500",
          "093920.092500",
          "093922.432500",
          "093924.772500",
          "093927.112500",
          "093929.452500",
          "093931.792500",
          "093934.132500",
          "093936.472500",
          "093938.812500",
          "093941.152500",
          "093943.492500",
          "093945.832500",
          "093948.172500",
          "093950.512500",
          "093952.852500",
          "093955.192500",
          "093957.532500",
          "093959.872500",
          "094002.212500",
          "094004.552500",
          "094006.892500",
          "094009.232500",
          "094011.572500",
          "094013.912500",
          "094016.252500",
          "094018.592500",
          "094020.932500",
          "094023.272500",
          "094025.612500",
          "094027.952500",
          "094030.292500",
          "094032.632500",
          "094034.972500",
          "094037.312500",
          "094039.652500",
          "094041.992500",
          "094044.332500",
          "094046.672500",
          "094049.012500",
          "094051.352500",
          "094053.692500",
          "094056.032500",
          "094058.372500",
          "094100.712500",
          "094103.052500",
          "094105.392500",
          "094107.732500",
          "094110.072500",
          "094112.412500",
          "094114.752500",
          "094117.092500",
          "094119.432500",
          "094121.772500",
          "094124.112500",
          "094126.452500",
          "094128.792500",
          "094131.132500",
          "094133.472500",
          "094135.812500",
          "094138.152500",
          "094140.492500",
          "094142.832500",
          "094145.172500",
          "094147.512500",
          "094149.852500",
          "094152.192500",
          "094154.532500",
          "094156.872500",
          "094159.212500",
          "094201.552500",
          "094203.892500",
          "094206.232500",
          "094208.572500",
          "094210.912500",
          "094213.252500",
          "094215.592500",
          "094217.932500",
          "094220.272500",
          "094222.612500",
          "094224.952500",
          "094227.292500",
          "094229.632500",
          "094231.972500",
          "094234.312500",
          "094236.652500",
          "094238.992500",
          "094241.332500",
          "094243.672500",
          "094246.012500",
          "094248.352500",
          "094250.692500",
          "094253.032500",
          "094255.372500",
          "094257.712500",
          "094300.052500",
          "094302.392500",
          "094304.732500",
          "094307.072500",
          "094309.412500",
          "094311.752500",
          "094314.092500",
          "094316.432500",
          "094318.772500",
          "094321.112500",
          "094323.452500",
          "094325.792500"
        ],
        "ContentTime": [
          "093932.158000",
          "093932.161000",
          "093932.164000",
          "093932.167000",
          "093932.169000",
          "093932.172000",
          "093932.175000",
          "093932.177000",
          "093932.180000",
          "093932.183000",
          "093932.185000",
          "093932.188000",
          "093932.191000",
          "093932.193000",
          "093932.196000",
          "093932.199000",
          "093932.201000",
          "093932.204000",
          "093932.207000",
          "093932.210000",
          "093932.213000",
          "093932.215000",
          "093932.218000",
          "093932.221000",
          "093932.223000",
          "093932.226000",
          "094032.154000",
          "094032.157000",
          "094032.160000",
          "094032.162000",
          "094032.165000",
          "094032.168000",
          "094032.170000",
          "094032.173000",
          "094032.176000",
          "094032.178000",
          "094032.181000",
          "094032.183000",
          "094032.186000",
          "094032.188000",
          "094032.191000",
          "094032.194000",
          "094032.196000",
          "094032.199000",
          "094032.201000",
          "094032.204000",
          "094032.207000",
          "094032.209000",
          "094032.212000",
          "094032.215000",
          "094032.217000",
          "094032.220000",
          "094132.153000",
          "094132.156000",
          "094132.162000",
          "094132.165000",
          "094132.168000",
          "094132.171000",
          "094132.179000",
          "094132.181000",
          "094132.184000",
          "094132.186000",
          "094132.189000",
          "094132.192000",
          "094132.194000",
          "094132.197000",
          "094132.200000",
          "094132.203000",
          "094132.205000",
          "094132.208000",
          "094132.211000",
          "094132.213000",
          "094132.216000",
          "094132.218000",
          "094132.221000",
          "094132.224000",
          "094132.227000",
          "094132.230000",
          "094232.153000",
          "094232.156000",
          "094232.159000",
          "094232.162000",
          "094232.165000",
          "094232.168000",
          "094232.170000",
          "094232.173000",
          "094232.176000",
          "094232.196000",
          "094232.199000",
          "094232.201000",
          "094232.204000",
          "094232.207000",
          "094232.210000",
          "094232.216000",
          "094232.219000",
          "094232.221000",
          "094232.224000",
          "094232.227000",
          "094232.239000",
          "094232.242000",
          "094232.245000",
          "094232.248000",
          "094232.251000",
          "094327.995000",
          "094327.998000",
          "094328.002000",
          "094328.004000",
          "094328.007000",
          "094328.010000",
          "094328.013000",
          "094328.016000",
          "094328.019000",
          "094328.024000",
          "094328.027000",
          "094328.030000",
          "094328.033000",
          "094328.036000",
          "094328.038000",
          "094328.041000",
          "094328.045000",
          "094328.048000",
          "094328.052000",
          "094328.056000",
          "094328.060000",
          "094328.064000",
          "094328.067000",
          "094328.070000"
        ],
        "InstanceCreationTime": [
          "093932.158000",
          "093932.161000",
          "093932.164000",
          "093932.167000",
          "093932.169000",
          "093932.172000",
          "093932.175000",
          "093932.177000",
          "093932.180000",
          "093932.183000",
          "093932.185000",
          "093932.188000",
          "093932.191000",
          "093932.193000",
          "093932.196000",
          "093932.199000",
          "093932.201000",
          "093932.204000",
          "093932.207000",
          "093932.210000",
          "093932.213000",
          "093932.215000",
          "093932.218000",
          "093932.221000",
          "093932.223000",
          "093932.226000",
          "094032.154000",
          "094032.157000",
          "094032.160000",
          "094032.162000",
          "094032.165000",
          "094032.168000",
          "094032.170000",
          "094032.173000",
          "094032.176000",
          "094032.178000",
          "094032.181000",
          "094032.183000",
          "094032.186000",
          "094032.188000",
          "094032.191000",
          "094032.194000",
          "094032.196000",
          "094032.199000",
          "094032.201000",
          "094032.204000",
          "094032.207000",
          "094032.209000",
          "094032.212000",
          "094032.215000",
          "094032.217000",
          "094032.220000",
          "094132.153000",
          "094132.156000",
          "094132.162000",
          "094132.165000",
          "094132.168000",
          "094132.171000",
          "094132.179000",
          "094132.181000",
          "094132.184000",
          "094132.186000",
          "094132.189000",
          "094132.192000",
          "094132.194000",
          "094132.197000",
          "094132.200000",
          "094132.203000",
          "094132.205000",
          "094132.208000",
          "094132.211000",
          "094132.213000",
          "094132.216000",
          "094132.218000",
          "094132.221000",
          "094132.224000",
          "094132.227000",
          "094132.230000",
          "094232.153000",
          "094232.156000",
          "094232.159000",
          "094232.162000",
          "094232.165000",
          "094232.168000",
          "094232.170000",
          "094232.173000",
          "094232.176000",
          "094232.196000",
          "094232.199000",
          "094232.201000",
          "094232.204000",
          "094232.207000",
          "094232.210000",
          "094232.216000",
          "094232.219000",
          "094232.221000",
          "094232.224000",
          "094232.227000",
          "094232.239000",
          "094232.242000",
          "094232.245000",
          "094232.248000",
          "094232.251000",
          "094327.995000",
          "094327.998000",
          "094328.002000",
          "094328.004000",
          "094328.007000",
          "094328.010000",
          "094328.013000",
          "094328.016000",
          "094328.019000",
          "094328.024000",
          "094328.027000",
          "094328.030000",
          "094328.033000",
          "094328.036000",
          "094328.038000",
          "094328.041000",
          "094328.045000",
          "094328.048000",
          "094328.052000",
          "094328.056000",
          "094328.060000",
          "094328.064000",
          "094328.067000",
          "094328.070000"
        ],
        "InstanceNumber": [
          1,
          2,
          3,
          4,
          5,
          6,
          7,
          8,
          9,
          10,
          11,
          12,
          13,
          14,
          15,
          16,
          17,
          18,
          19,
          20,
          21,
          22,
          23,
          24,
          25,
          26,
          27,
          28,
          29,
          30,
          31,
          32,
          33,
          34,
          35,
          36,
          37,
          38,
          39,
          40,
          41,
          42,
          43,
          44,
          45,
          46,
          47,
          48,
          49,
          50,
          51,
          52,
          53,
          54,
          55,
          56,
          57,
          58,
          59,
          60,
          61,
          62,
          63,
          64,
          65,
          66,
          67,
          68,
          69,
          70,
          71,
          72,
          73,
          74,
          75,
          76,
          77,
          78,
          79,
          80,
          81,
          82,
          83,
          84,
          85,
          86,
          87,
          88,
          89,
          90,
          91,
          92,
          93,
          94,
          95,
          96,
          97,
          98,
          99,
          100,
          101,
          102,
          103,
          104,
          105,
          106,
          107,
          108,
          109,
          110,
          111,
          112,
          113,
          114,
          115,
          116,
          117,
          118,
          119,
          120,
          121,
          122,
          123,
          124,
          125,
          126,
          127
        ],
        "LargestImagePixelValue": [
          2358,
          2296,
          2766,
          2235,
          2013,
          1803,
          1941,
          2342,
          2240,
          2238,
          2307,
          2286,
          1931,
          2008,
          2011,
          2187,
          2402,
          2431,
          2358,
          2054,
          1843,
          2390,
          1794,
          1961,
          1991,
          2408,
          1726,
          2000,
          1890,
          2151,
          2782,
          1689,
          2195,
          2390,
          2151,
          2171,
          2048,
          2002,
          1944,
          2402,
          2038,
          2325,
          2107,
          2048,
          2141,
          2224,
          1857,
          2065,
          1867,
          1864,
          2363,
          2031,
          2023,
          2282,
          2235,
          2405,
          1735,
          2375,
          2221,
          1714,
          1855,
          2249,
          1800,
          2166,
          2497,
          2022,
          1949,
          2375,
          1767,
          2164,
          2100,
          1798,
          1662,
          1773,
          2409,
          2291,
          2216,
          1809,
          2000,
          2553,
          1776,
          2754,
          2928,
          2879,
          2016,
          1964,
          2269,
          1930,
          1706,
          2007,
          2262,
          1904,
          1734,
          1792,
          2478,
          1921,
          2621,
          2264,
          1781,
          1926,
          2421,
          2464,
          2091,
          2043,
          1989,
          2614,
          1730,
          2274,
          1975,
          2090,
          2648,
          1666,
          1782,
          1901,
          1752,
          1750,
          2551,
          2304,
          2286,
          2556,
          2128,
          2106,
          2215,
          2288,
          2317,
          1691,
          1769
        ],
        "WindowCenter": [
          813.0,
          810.0,
          809.0,
          807.0,
          808.0,
          808.0,
          809.0,
          809.0,
          809.0,
          809.0,
          809.0,
          808.0,
          807.0,
          809.0,
          810.0,
          809.0,
          810.0,
          809.0,
          808.0,
          807.0,
          808.0,
          810.0,
          808.0,
          808.0,
          808.0,
          808.0,
          806.0,
          810.0,
          808.0,
          809.0,
          807.0,
          806.0,
          807.0,
          809.0,
          806.0,
          809.0,
          810.0,
          809.0,
          807.0,
          809.0,
          807.0,
          811.0,
          811.0,
          811.0,
          808.0,
          810.0,
          808.0,
          809.0,
          810.0,
          809.0,
          812.0,
          811.0,
          810.0,
          812.0,
          809.0,
          808.0,
          808.0,
          807.0,
          806.0,
          807.0,
          809.0,
          810.0,
          808.0,
          809.0,
          810.0,
          810.0,
          811.0,
          809.0,
          808.0,
          808.0,
          808.0,
          810.0,
          812.0,
          812.0,
          813.0,
          812.0,
          811.0,
          811.0,
          812.0,
          815.0,
          813.0,
          814.0,
          810.0,
          806.0,
          802.0,
          805.0,
          805.0,
          807.0,
          806.0,
          810.0,
          807.0,
          808.0,
          810.0,
          811.0,
          810.0,
          809.0,
          815.0,
          813.0,
          811.0,
          814.0,
          812.0,
          816.0,
          812.0,
          813.0,
          811.0,
          814.0,
          810.0,
          813.0,
          811.0,
          813.0,
          811.0,
          810.0,
          810.0,
          815.0,
          813.0,
          815.0,
          817.0,
          813.0,
          812.0,
          813.0,
          811.0,
          814.0,
          813.0,
          813.0,
          812.0,
          812.0,
          815.0
        ],
        "WindowWidth": [
          1724.0,
          1718.0,
          1714.0,
          1708.0,
          1710.0,
          1709.0,
          1712.0,
          1713.0,
          1712.0,
          1712.0,
          1712.0,
          1711.0,
          1707.0,
          1712.0,
          1714.0,
          1713.0,
          1714.0,
          1713.0,
          1712.0,
          1708.0,
          1710.0,
          1714.0,
          1709.0,
          1709.0,
          1711.0,
          1710.0,
          1705.0,
          1716.0,
          1711.0,
          1711.0,
          1709.0,
          1703.0,
          1708.0,
          1712.0,
          1705.0,
          1712.0,
          1714.0,
          1713.0,
          1708.0,
          1711.0,
          1708.0,
          1717.0,
          1717.0,
          1718.0,
          1710.0,
          1714.0,
          1709.0,
          1712.0,
          1716.0,
          1713.0,
          1719.0,
          1718.0,
          1715.0,
          1720.0,
          1713.0,
          1711.0,
          1710.0,
          1708.0,
          1704.0,
          1707.0,
          1713.0,
          1714.0,
          1708.0,
          1713.0,
          1714.0,
          1717.0,
          1718.0,
          1713.0,
          1710.0,
          1710.0,
          1711.0,
          1713.0,
          1720.0,
          1719.0,
          1723.0,
          1719.0,
          1717.0,
          1717.0,
          1721.0,
          1727.0,
          1720.0,
          1727.0,
          1714.0,
          1705.0,
          1694.0,
          1701.0,
          1705.0,
          1706.0,
          1704.0,
          1716.0,
          1709.0,
          1707.0,
          1716.0,
          1716.0,
          1716.0,
          1713.0,
          1727.0,
          1723.0,
          1719.0,
          1726.0,
          1720.0,
          1730.0,
          1721.0,
          1722.0,
          1717.0,
          1726.0,
          1713.0,
          1724.0,
          1716.0,
          1721.0,
          1720.0,
          1715.0,
          1714.0,
          1726.0,
          1721.0,
          1726.0,
          1732.0,
          1722.0,
          1719.0,
          1724.0,
          1718.0,
          1726.0,
          1724.0,
          1722.0,
          1721.0,
          1719.0,
          1727.0
        ]
      },
      "slices": {}
    }
  },
  "dummy_trs": 0,
  "dvars_nstd": 37.28633856396825,
  "dvars_std": 1.3380161512698412,
  "dvars_vstd": 1.0589634126190477,
  "efc": 0.5808957187472766,
  "fber": 1565.32177734375,
  "fd_mean": 0.5587643939576955,
  "fd_num": 105,
  "fd_perc": 82.67716535433071,
  "fwhm_avg": 1.6354773812494638,
  "fwhm_x": 1.52107,
  "fwhm_y": 1.8257166666666667,
  "fwhm_z": 1.5596454770817247,
  "gcor": 0.0565218,
  "gsr_x": 0.0025633785407990217,
  "gsr_y": 0.04430566355586052,
  "provenance": {
    "md5sum": "3659e00d1a22862c98f7588e38139498",
    "settings": {
      "fd_thres": 0.2,
      "testing": false
    },
    "software": "mriqc",
    "version": "22.0.1",
    "webapi_port": null,
    "webapi_url": "https://mriqc.nimh.nih.gov/api/v1"
  },
  "size_t": 127,
  "size_x": 64,
  "size_y": 64,
  "size_z": 34,
  "snr": 7.280878104896943,
  "spacing_tr": 2.3399999141693115,
  "spacing_x": 3.0,
  "spacing_y": 3.0,
  "spacing_z": 3.299999952316284,
  "summary_bg_k": 32.704814623832284,
  "summary_bg_mad": 11.475575542555742,
  "summary_bg_mean": 42.23651123046875,
  "summary_bg_median": 22.929134368896484,
  "summary_bg_n": 72047.0,
  "summary_bg_p05": 11.881889343261719,
  "summary_bg_p95": 129.6039306640625,
  "summary_bg_stdv": 64.60374450683594,
  "summary_fg_k": 2.1862986390053347,
  "summary_fg_mad": 124.90045929586485,
  "summary_fg_mean": 936.0961303710938,
  "summary_fg_median": 934.2125854492188,
  "summary_fg_n": 34689.0,
  "summary_fg_p05": 743.9244140625,
  "summary_fg_p95": 1134.0677490234375,
  "summary_fg_stdv": 128.30857849121094,
  "tsnr": 54.495978080434725
}