{
  "aor": 0.004711,
  "aqi": 0.018925540384615386,
  "bids_meta": {
    "AcquisitionMatrixPE": 64,
    "AcquisitionNumber": 1,
    "AcquisitionTime": "14:17:32.310000",
    "BandwidthPerPixelPhaseEncode": 24.038,
    "BaseResolution": 64,
    "BodyPartExamined": "HEAD",
    "ConsistencyInfo": "N4_VD13A_LATEST_20120616",
    "ConversionSoftware": "dcm2niix",
    "ConversionSoftwareVersion": "v1.0.20181125  GCC6.3.0",
    "DerivedVendorReportedEchoSpacing": 0.000650012,
    "DeviceSerialNumber": "45250",
    "DwellTime": 4.6e-06,
    "EchoTime": 0.033,
    "EchoTrainLength": 64,
    "EffectiveEchoSpacing": 0.000650012,
    "FlipAngle": 90,
    "ImageOrientationPatientDICOM": [
      0.99987,
      0.0144028,
      -0.00729297,
      -0.0157072,
      0.972267,
      -0.233345
    ],
    "ImageType": [
      "ORIGINAL",
      "PRIMARY",
      "M",
      "ND",
      "NORM",
      "MOSAIC"
    ],
    "ImagingFrequency": 123.214,
    "InPlanePhaseEncodingDirectionDICOM": "COL",
    "InstitutionAddress": "Kopernikusstr._26_Graz_Graz_AT_8010",
    "InstitutionName": "KFU",
    "InstitutionalDepartmentName": "Department",
    "MRAcquisitionType": "2D",
    "MagneticFieldStrength": 3,
    "Manufacturer": "Siemens",
    "ManufacturersModelName": "Skyra",
    "Modality": "MR",
    "PartialFourier": 1,
    "PatientPosition": "HFS",
    "PercentPhaseFOV": 100,
    "PhaseEncodingDirection": "j-",
    "PhaseEncodingSteps": 64,
    "PhaseResolution": 1,
    "PixelBandwidth": 1700,
    "ProcedureStepDescription": "KFU_Entw-Psy",
    "ProtocolName": "fMRI_1",
    "PulseSequenceDetails": "%SiemensSeq%_ep2d_pace",
    "ReceiveCoilActiveElements": "HE1-4",
    "ReceiveCoilName": "HeadNeck_20",
    "ReconMatrixPE": 64,
    "RepetitionTime": 2.34,
    "SAR": 0.192509,
    "ScanOptions": "FS",
    "ScanningSequence": "EP",
    "SequenceName": "_epfid2d1_64",
    "SequenceVariant": "SK",
    "SeriesDescription": "fMRI_1",
    "SeriesNumber": 2,
    "ShimSetting": [
      -1501,
      -3612,
      -4393,
      348,
      571,
      277,
      -21,
      -183
    ],
    "SliceThickness": 3,
    "SliceTiming": [
      2.2525,
      2.185,
      2.115,
      2.0475,
      1.98,
      1.91,
      1.8425,
      1.775,
      1.7075,
      1.6375,
      1.57,
      1.5025,
      1.4325,
      1.365,
      1.2975,
      1.23,
      1.16,
      1.0925,
      1.025,
      0.955,
      0.8875,
      0.82,
      0.75,
      0.6825,
      0.615,
      0.5475,
      0.4775,
      0.41,
      0.3425,
      0.2725,
      0.205,
      0.1375,
      0.07,
      0
    ],
    "SoftwareVersions": "syngo_MR_D13",
    "SpacingBetweenSlices": 3.3,
    "StationName": "FBMTMR1",
    "TaskName": "read",
    "TotalReadoutTime": 0.0409508,
    "TxRefAmp": 331.195,
    "dataset": "ds003126",
    "dcmmeta_affine": [
      [
        -2.9996089935302734,
        -0.04712165519595146,
        -0.012308632023632526,
        99.26802825927734
      ],
      [
        -0.043208472430706024,
        2.9168014526367188,
        -0.770316481590271,
        -108.91786193847656
      ],
      [
        -0.021878914907574654,
        0.7000352740287781,
        3.2088098526000977,
        -37.09688949584961
      ],
      [
        0.0,
        0.0,
        0.0,
        1.0
      ]
    ],
    "dcmmeta_reorient_transform": [
      [
        0.0,
        -1.0,
        0.0,
        63.0
      ],
      [
        1.0,
        0.0,
        0.0,
        0.0
      ],
      [
        0.0,
        0.0,
        1.0,
        0.0
      ],
      [
        0.0,
        0.0,
        0.0,
        1.0
      ]
    ],
    "dcmmeta_shape": [
      64,
      64,
      34,
      130
    ],
    "dcmmeta_slice_dim": 2,
    "dcmmeta_version": 0.6,
    "global": {
      "const": {
        "AcquisitionMatrix": [
          64,
          0,
          0,
          64
        ],
        "AngioFlag": "N",
        "BitsAllocated": 16,
        "BitsStored": 12,
        "BodyPartExamined": "HEAD",
        "Columns": 384,
        "EchoNumbers": 1,
        "EchoTime": 33.0,
        "EchoTrainLength": 64,
        "FlipAngle": 90.0,
        "HighBit": 11,
        "ImageOrientationPatient": [
          0.99986967711037,
          0.01440282462937,
          -0.0072929718161,
          -0.015707218982,
          0.97226712057562,
          -0.2333450867694
        ],
        "ImagePositionPatient": [
          -568.69734335709,
          -548.44219826779,
          122.51160118253
        ],
        "ImageType": [
          "ORIGINAL",
          "PRIMARY",
          "M",
          "ND",
          "NORM",
          "MOSAIC"
        ],
        "ImagedNucleus": "1H",
        "ImagingFrequency": 123.214432,
        "InPlanePhaseEncodingDirection": "COL",
        "MRAcquisitionType": "2D",
        "MagneticFieldStrength": 3.0,
        "Manufacturer": "SIEMENS",
        "ManufacturerModelName": "Skyra",
        "Modality": "MR",
        "NumberOfAverages": 1.0,
        "NumberOfPhaseEncodingSteps": 64,
        "PercentPhaseFieldOfView": 100.0,
        "PercentSampling": 100.0,
        "PerformedProcedureStepStartTime": "141526.896000",
        "PhotometricInterpretation": "MONOCHROME2",
        "PixelBandwidth": 1700.0,
        "PixelRepresentation": 0,
        "PixelSpacing": [
          3.0,
          3.0
        ],
        "ProtocolName": "fMRI_1",
        "RepetitionTime": 2340.0,
        "Rows": 384,
        "SAR": 0.19250916228502,
        "SamplesPerPixel": 1,
        "ScanOptions": "FS",
        "ScanningSequence": "EP",
        "SequenceName": "*epfid2d1_64",
        "SequenceVariant": "SK",
        "SeriesDescription": "fMRI_1",
        "SeriesNumber": 2,
        "SeriesTime": "141818.586000",
        "SliceLocation": -11.017422981987,
        "SliceThickness": 3.0,
        "SmallestImagePixelValue": 0,
        "SoftwareVersions": "syngo MR D13",
        "SpacingBetweenSlices": 3.3000000226786,
        "SpecificCharacterSet": "ISO_IR 100",
        "StudyID": "1",
        "StudyTime": "141526.839000",
        "TransmitCoilName": "Body",
        "VariableFlipAngleFlag": "N",
        "WindowCenterWidthExplanation": "Algo1",
        "dBdt": 0.0
      },
      "slices": {}
    },
    "modality": "bold",
    "run_id": 1,
    "session_id": "2",
    "subject_id": "047EPKL011005",
    "task_id": "read",
    "time": {
      "samples": {
        "AcquisitionNumber": [
          1,
          2,
          3,
          4,
          5,
          6,
          7,
          8,
          9,
          10,
          11,
          12,
          13,
          14,
          15,
          16,
          17,
          18,
          19,
          20,
          21,
          22,
          23,
          24,
          25,
          26,
          27,
          28,
          29,
          30,
          31,
          32,
          33,
          34,
          35,
          36,
          37,
          38,
          39,
          40,
          41,
          42,
          43,
          44,
          45,
          46,
          47,
          48,
          49,
          50,
          51,
          52,
          53,
          54,
          55,
          56,
          57,
          58,
          59,
          60,
          61,
          62,
          63,
          64,
          65,
          66,
          67,
          68,
          69,
          70,
          71,
          72,
          73,
          74,
          75,
          76,
          77,
          78,
          79,
          80,
          81,
          82,
          83,
          84,
          85,
          86,
          87,
          88,
          89,
          90,
          91,
          92,
          93,
          94,
          95,
          96,
          97,
          98,
          99,
          100,
          101,
          102,
          103,
          104,
          105,
          106,
          107,
          108,
          109,
          110,
          111,
          112,
          113,
          114,
          115,
          116,
          117,
          118,
          119,
          120,
          121,
          122,
          123,
          124,
          125,
          126,
          127,
          128,
          129,
          130
        ],
        "AcquisitionTime": [
          "141732.310000",
          "141734.650000",
          "141736.990000",
          "141739.330000",
          "141741.670000",
          "141744.010000",
          "141746.350000",
          "141748.690000",
          "141751.030000",
          "141753.370000",
          "141755.710000",
          "141758.050000",
          "141800.390000",
          "141802.730000",
          "141805.070000",
          "141807.410000",
          "141809.750000",
          "141812.090000",
          "141814.430000",
          "141816.770000",
          "141819.110000",
          "141821.450000",
          "141823.790000",
          "141826.130000",
          "141828.470000",
          "141830.810000",
          "141833.150000",
          "141835.490000",
          "141837.830000",
          "141840.170000",
          "141842.510000",
          "141844.850000",
          "141847.190000",
          "141849.530000",
          "141851.870000",
          "141854.210000",
          "141856.550000",
          "141858.890000",
          "141901.230000",
          "141903.570000",
          "141905.910000",
          "141908.250000",
          "141910.590000",
          "141912.930000",
          "141915.270000",
          "141917.610000",
          "141919.950000",
          "141922.290000",
          "141924.630000",
          "141926.970000",
          "141929.310000",
          "141931.650000",
          "141933.990000",
          "141936.330000",
          "141938.670000",
          "141941.010000",
          "141943.350000",
          "141945.690000",
          "141948.030000",
          "141950.370000",
          "141952.710000",
          "141955.050000",
          "141957.390000",
          "141959.730000",
          "142002.070000",
          "142004.410000",
          "142006.750000",
          "142009.090000",
          "142011.430000",
          "142013.770000",
          "142016.110000",
          "142018.450000",
          "142020.790000",
          "142023.130000",
          "142025.470000",
          "142027.810000",
          "142030.150000",
          "142032.490000",
          "142034.830000",
          "142037.170000",
          "142039.510000",
          "142041.850000",
          "142044.190000",
          "142046.530000",
          "142048.870000",
          "142051.210000",
          "142053.550000",
          "142055.890000",
          "142058.230000",
          "142100.570000",
          "142102.910000",
          "142105.250000",
          "142107.590000",
          "142109.930000",
          "142112.270000",
          "142114.610000",
          "142116.950000",
          "142119.290000",
          "142121.630000",
          "142123.970000",
          "142126.310000",
          "142128.650000",
          "142130.990000",
          "142133.330000",
          "142135.670000",
          "142138.010000",
          "142140.350000",
          "142142.690000",
          "142145.030000",
          "142147.370000",
          "142149.710000",
          "142152.050000",
          "142154.390000",
          "142156.730000",
          "142159.070000",
          "142201.410000",
          "142203.750000",
          "142206.090000",
          "142208.430000",
          "142210.770000",
          "142213.110000",
          "142215.450000",
          "142217.790000",
          "142220.130000",
          "142222.470000",
          "142224.810000",
          "142227.150000",
          "142229.490000",
          "142231.830000",
          "142234.170000"
        ],
        "ContentTime": [
          "141818.591000",
          "141818.594000",
          "141818.602000",
          "141818.610000",
          "141818.613000",
          "141818.616000",
          "141818.619000",
          "141818.622000",
          "141818.626000",
          "141818.629000",
          "141818.635000",
          "141818.638000",
          "141818.641000",
          "141818.644000",
          "141818.652000",
          "141818.655000",
          "141818.657000",
          "141818.660000",
          "141818.663000",
          "141818.666000",
          "141918.587000",
          "141918.591000",
          "141918.594000",
          "141918.596000",
          "141918.599000",
          "141918.602000",
          "141918.604000",
          "141918.607000",
          "141918.610000",
          "141918.613000",
          "141918.615000",
          "141918.618000",
          "141918.621000",
          "141918.624000",
          "141918.626000",
          "141918.629000",
          "141918.632000",
          "141918.634000",
          "141918.637000",
          "141918.640000",
          "141918.643000",
          "141918.646000",
          "141918.649000",
          "141918.652000",
          "141918.655000",
          "141918.657000",
          "142018.586000",
          "142018.589000",
          "142018.591000",
          "142018.600000",
          "142018.603000",
          "142018.605000",
          "142018.608000",
          "142018.611000",
          "142018.614000",
          "142018.616000",
          "142018.619000",
          "142018.622000",
          "142018.625000",
          "142018.628000",
          "142018.630000",
          "142018.633000",
          "142018.636000",
          "142018.639000",
          "142018.642000",
          "142018.645000",
          "142018.647000",
          "142018.650000",
          "142018.653000",
          "142018.656000",
          "142018.659000",
          "142118.587000",
          "142118.597000",
          "142118.600000",
          "142118.603000",
          "142118.605000",
          "142118.609000",
          "142118.612000",
          "142118.614000",
          "142118.617000",
          "142118.620000",
          "142118.622000",
          "142118.625000",
          "142118.628000",
          "142118.630000",
          "142118.633000",
          "142118.636000",
          "142118.639000",
          "142118.646000",
          "142118.649000",
          "142118.652000",
          "142118.655000",
          "142118.658000",
          "142118.660000",
          "142118.663000",
          "142118.666000",
          "142118.669000",
          "142218.585000",
          "142218.592000",
          "142218.597000",
          "142218.600000",
          "142218.603000",
          "142218.606000",
          "142218.610000",
          "142218.613000",
          "142218.616000",
          "142218.619000",
          "142218.622000",
          "142218.625000",
          "142218.627000",
          "142218.630000",
          "142218.633000",
          "142218.636000",
          "142218.639000",
          "142218.641000",
          "142218.644000",
          "142218.647000",
          "142218.650000",
          "142218.653000",
          "142218.655000",
          "142218.658000",
          "142218.661000",
          "142235.030000",
          "142235.033000",
          "142235.037000",
          "142235.040000",
          "142235.043000",
          "142235.046000",
          "142235.050000",
          "142235.054000"
        ],
        "InstanceCreationTime": [
          "141818.591000",
          "141818.594000",
          "141818.602000",
          "141818.610000",
          "141818.613000",
          "141818.616000",
          "141818.619000",
          "141818.622000",
          "141818.626000",
          "141818.629000",
          "141818.635000",
          "141818.638000",
          "141818.641000",
          "141818.644000",
          "141818.652000",
          "141818.655000",
          "141818.657000",
          "141818.660000",
          "141818.663000",
          "141818.666000",
          "141918.587000",
          "141918.591000",
          "141918.594000",
          "141918.596000",
          "141918.599000",
          "141918.602000",
          "141918.604000",
          "141918.607000",
          "141918.610000",
          "141918.613000",
          "141918.615000",
          "141918.618000",
          "141918.621000",
          "141918.624000",
          "141918.626000",
          "141918.629000",
          "141918.632000",
          "141918.634000",
          "141918.637000",
          "141918.640000",
          "141918.643000",
          "141918.646000",
          "141918.649000",
          "141918.652000",
          "141918.655000",
          "141918.657000",
          "142018.586000",
          "142018.589000",
          "142018.591000",
          "142018.600000",
          "142018.603000",
          "142018.605000",
          "142018.608000",
          "142018.611000",
          "142018.614000",
          "142018.616000",
          "142018.619000",
          "142018.622000",
          "142018.625000",
          "142018.628000",
          "142018.630000",
          "142018.633000",
          "142018.636000",
          "142018.639000",
          "142018.642000",
          "142018.645000",
          "142018.647000",
          "142018.650000",
          "142018.653000",
          "142018.656000",
          "142018.659000",
          "142118.587000",
          "142118.597000",
          "142118.600000",
          "142118.603000",
          "142118.605000",
          "142118.609000",
          "142118.612000",
          "142118.614000",
          "142118.617000",
          "142118.620000",
          "142118.622000",
          "142118.625000",
          "142118.628000",
          "142118.630000",
          "142118.633000",
          "142118.636000",
          "142118.639000",
          "142118.646000",
          "142118.649000",
          "142118.652000",
          "142118.655000",
          "142118.658000",
          "142118.660000",
          "142118.663000",
          "142118.666000",
          "142118.669000",
          "142218.585000",
          "142218.592000",
          "142218.597000",
          "142218.600000",
          "142218.603000",
          "142218.606000",
          "142218.610000",
          "142218.613000",
          "142218.616000",
          "142218.619000",
          "142218.622000",
          "142218.625000",
          "142218.627000",
          "142218.630000",
          "142218.633000",
          "142218.636000",
          "142218.639000",
          "142218.641000",
          "142218.644000",
          "142218.647000",
          "142218.650000",
          "142218.653000",
          "142218.655000",
          "142218.658000",
          "142218.661000",
          "142235.030000",
          "142235.033000",
          "142235.037000",
          "142235.040000",
          "142235.043000",
          "142235.046000",
          "142235.050000",
          "142235.054000"
        ],
        "InstanceNumber": [
          1,
          2,
          3,
          4,
          5,
          6,
          7,
          8,
          9,
          10,
          11,
          12,
          13,
          14,
          15,
          16,
          17,
          18,
          19,
          20,
          21,
          22,
          23,
          24,
          25,
          26,
          27,
          28,
          29,
          30,
          31,
          32,
          33,
          34,
          35,
          36,
          37,
          38,
          39,
          40,
          41,
          42,
          43,
          44,
          45,
          46,
          47,
          48,
          49,
          50,
          51,
          52,
          53,
          54,
          55,
          56,
          57,
          58,
          59,
          60,
          61,
          62,
          63,
          64,
          65,
          66,
          67,
          68,
          69,
          70,
          71,
          72,
          73,
          74,
          75,
          76,
          77,
          78,
          79,
          80,
          81,
          82,
          83,
          84,
          85,
          86,
          87,
          88,
          89,
          90,
          91,
          92,
          93,
          94,
          95,
          96,
          97,
          98,
          99,
          100,
          101,
          102,
          103,
          104,
          105,
          106,
          107,
          108,
          109,
          110,
          111,
          112,
          113,
          114,
          115,
          116,
          117,
          118,
          119,
          120,
          121,
          122,
          123,
          124,
          125,
          126,
          127,
          128,
          129,
          130
        ],
        "LargestImagePixelValue": [
          2551,
          2234,
          2461,
          1927,
          2034,
          1727,
          1911,
          1908,
          1956,
          2068,
          1890,
          2570,
          2265,
          1883,
          1933,
          1813,
          2618,
          2317,
          1702,
          1786,
          1763,
          2159,
          2247,
          2420,
          2055,
          2026,
          1777,
          2048,
          2144,
          2593,
          1991,
          1882,
          2096,
          1928,
          1911,
          1833,
          1813,
          1939,
          2541,
          2540,
          1842,
          1618,
          1825,
          1829,
          2750,
          2470,
          1871,
          1946,
          1731,
          1838,
          1859,
          2103,
          2004,
          2133,
          1940,
          1971,
          1858,
          1991,
          2369,
          2655,
          1853,
          1886,
          1883,
          1912,
          1829,
          2188,
          2378,
          2055,
          1772,
          1887,
          2510,
          2278,
          1763,
          1939,
          1774,
          1886,
          1827,
          2548,
          2448,
          2135,
          2644,
          1971,
          1822,
          1875,
          1793,
          1842,
          2296,
          1989,
          2055,
          2830,
          2013,
          2112,
          2309,
          2517,
          2281,
          2526,
          2006,
          1925,
          2034,
          1857,
          1760,
          1823,
          1770,
          2055,
          2072,
          1884,
          1826,
          1790,
          1841,
          2085,
          2266,
          2121,
          2612,
          2605,
          1719,
          1918,
          1905,
          2002,
          2177,
          2746,
          1886,
          2200,
          1833,
          1911,
          1878,
          2591,
          2095,
          2189,
          2028,
          1989
        ],
        "WindowCenter": [
          795.0,
          791.0,
          790.0,
          789.0,
          791.0,
          789.0,
          790.0,
          791.0,
          790.0,
          790.0,
          789.0,
          793.0,
          789.0,
          789.0,
          788.0,
          791.0,
          790.0,
          789.0,
          787.0,
          788.0,
          790.0,
          793.0,
          790.0,
          791.0,
          786.0,
          791.0,
          788.0,
          793.0,
          789.0,
          787.0,
          784.0,
          785.0,
          788.0,
          787.0,
          789.0,
          789.0,
          791.0,
          791.0,
          791.0,
          790.0,
          789.0,
          790.0,
          791.0,
          789.0,
          792.0,
          789.0,
          788.0,
          791.0,
          791.0,
          792.0,
          793.0,
          790.0,
          789.0,
          790.0,
          789.0,
          790.0,
          792.0,
          792.0,
          792.0,
          792.0,
          788.0,
          790.0,
          790.0,
          791.0,
          792.0,
          795.0,
          791.0,
          792.0,
          794.0,
          794.0,
          791.0,
          790.0,
          787.0,
          789.0,
          791.0,
          792.0,
          792.0,
          792.0,
          791.0,
          792.0,
          793.0,
          792.0,
          790.0,
          793.0,
          793.0,
          793.0,
          793.0,
          793.0,
          793.0,
          794.0,
          793.0,
          796.0,
          793.0,
          793.0,
          786.0,
          787.0,
          785.0,
          787.0,
          787.0,
          785.0,
          789.0,
          792.0,
          792.0,
          793.0,
          792.0,
          794.0,
          796.0,
          793.0,
          794.0,
          795.0,
          794.0,
          795.0,
          794.0,
          791.0,
          791.0,
          795.0,
          796.0,
          794.0,
          794.0,
          794.0,
          790.0,
          792.0,
          792.0,
          796.0,
          796.0,
          798.0,
          794.0,
          794.0,
          793.0,
          791.0
        ],
        "WindowWidth": [
          1679.0,
          1669.0,
          1667.0,
          1664.0,
          1668.0,
          1663.0,
          1667.0,
          1669.0,
          1667.0,
          1668.0,
          1665.0,
          1674.0,
          1663.0,
          1664.0,
          1662.0,
          1669.0,
          1668.0,
          1662.0,
          1657.0,
          1662.0,
          1665.0,
          1671.0,
          1667.0,
          1670.0,
          1657.0,
          1667.0,
          1658.0,
          1674.0,
          1665.0,
          1661.0,
          1653.0,
          1653.0,
          1660.0,
          1660.0,
          1663.0,
          1665.0,
          1665.0,
          1668.0,
          1671.0,
          1667.0,
          1664.0,
          1664.0,
          1671.0,
          1665.0,
          1672.0,
          1662.0,
          1660.0,
          1668.0,
          1671.0,
          1671.0,
          1673.0,
          1667.0,
          1665.0,
          1667.0,
          1664.0,
          1665.0,
          1669.0,
          1670.0,
          1672.0,
          1674.0,
          1661.0,
          1665.0,
          1667.0,
          1668.0,
          1670.0,
          1678.0,
          1670.0,
          1671.0,
          1672.0,
          1677.0,
          1670.0,
          1667.0,
          1658.0,
          1665.0,
          1668.0,
          1670.0,
          1672.0,
          1673.0,
          1668.0,
          1672.0,
          1676.0,
          1670.0,
          1666.0,
          1675.0,
          1672.0,
          1675.0,
          1675.0,
          1672.0,
          1674.0,
          1678.0,
          1674.0,
          1681.0,
          1673.0,
          1675.0,
          1657.0,
          1660.0,
          1653.0,
          1659.0,
          1659.0,
          1653.0,
          1664.0,
          1672.0,
          1671.0,
          1674.0,
          1671.0,
          1675.0,
          1678.0,
          1674.0,
          1675.0,
          1680.0,
          1677.0,
          1679.0,
          1676.0,
          1669.0,
          1670.0,
          1678.0,
          1683.0,
          1678.0,
          1676.0,
          1676.0,
          1665.0,
          1672.0,
          1671.0,
          1680.0,
          1682.0,
          1686.0,
          1675.0,
          1676.0,
          1674.0,
          1670.0
        ]
      },
      "slices": {}
    }
  },
  "dummy_trs": 0,
  "dvars_nstd": 38.194358101782925,
  "dvars_std": 1.3158847658914719,
  "dvars_vstd": 1.0439438083720927,
  "efc": 0.5769777607055606,
  "fber": 1355.7637939453125,
  "fd_mean": 0.5042522954120029,
  "fd_num": 104,
  "fd_perc": 80.0,
  "fwhm_avg": 1.5863335425673943,
  "fwhm_x": 1.4934633333333334,
  "fwhm_y": 1.7678099999999999,
  "fwhm_z": 1.4977272943688493,
  "gcor": 0.0556924,
  "gsr_x": -0.0006458158022724092,
  "gsr_y": 0.033616114407777786,
  "provenance": {
    "md5sum": "edcd9b5fd42c9d6aa3ab62f6ecba46e2",
    "settings": {
      "fd_thres": 0.2,
      "testing": false
    },
    "software": "mriqc",
    "version": "22.0.1",
    "webapi_port": null,
    "webapi_url": "https://mriqc.nimh.nih.gov/api/v1"
  },
  "size_t": 130,
  "size_x": 64,
  "size_y": 64,
  "size_z": 34,
  "snr": 7.353157025297099,
  "spacing_tr": 2.3399999141693115,
  "spacing_x": 3.0,
  "spacing_y": 3.0,
  "spacing_z": 3.299999952316284,
  "summary_bg_k": 57.749748702016085,
  "summary_bg_mad": 10.560690344823426,
  "summary_bg_mean": 35.477840423583984,
  "summary_bg_median": 23.91538429260254,
  "summary_bg_n": 71789.0,
  "summary_bg_p05": 12.815384864807129,
  "summary_bg_p95": 89.59384613037096,
  "summary_bg_stdv": 45.08993148803711,
  "summary_fg_k": 4.1671915117935034,
  "summary_fg_mad": 110.81881490923577,
  "summary_fg_mean": 903.3006591796875,
  "summary_fg_median": 899.7230834960938,
  "summary_fg_n": 35056.0,
  "summary_fg_p05": 732.4134826660156,
  "summary_fg_p95": 1086.0826721191406,
  "summary_fg_stdv": 122.35700225830078,
  "tsnr": 52.35144613904413
}