{
  "aor": 0.004375528455284552,
  "aqi": 0.028746586991869924,
  "bids_meta": {
    "AcquisitionMatrixPE": 64,
    "AcquisitionNumber": 1,
    "AcquisitionTime": "14:29:29.940000",
    "BandwidthPerPixelPhaseEncode": 24.038,
    "BaseResolution": 64,
    "BodyPartExamined": "HEAD",
    "ConsistencyInfo": "N4_VD13A_LATEST_20120616",
    "ConversionSoftware": "dcm2niix",
    "ConversionSoftwareVersion": "v1.0.20181125  GCC6.3.0",
    "DerivedVendorReportedEchoSpacing": 0.000650012,
    "DeviceSerialNumber": "45250",
    "DwellTime": 4.6e-06,
    "EchoTime": 0.033,
    "EchoTrainLength": 64,
    "EffectiveEchoSpacing": 0.000650012,
    "FlipAngle": 90,
    "ImageOrientationPatientDICOM": [
      0.99987,
      0.0144028,
      -0.00729297,
      -0.0157072,
      0.972267,
      -0.233345
    ],
    "ImageType": [
      "ORIGINAL",
      "PRIMARY",
      "M",
      "ND",
      "NORM",
      "MOSAIC"
    ],
    "ImagingFrequency": 123.214,
    "InPlanePhaseEncodingDirectionDICOM": "COL",
    "InstitutionAddress": "Kopernikusstr._26_Graz_Graz_AT_8010",
    "InstitutionName": "KFU",
    "InstitutionalDepartmentName": "Department",
    "MRAcquisitionType": "2D",
    "MagneticFieldStrength": 3,
    "Manufacturer": "Siemens",
    "ManufacturersModelName": "Skyra",
    "Modality": "MR",
    "PartialFourier": 1,
    "PatientPosition": "HFS",
    "PercentPhaseFOV": 100,
    "PhaseEncodingDirection": "j-",
    "PhaseEncodingSteps": 64,
    "PhaseResolution": 1,
    "PixelBandwidth": 1700,
    "ProcedureStepDescription": "KFU_Entw-Psy",
    "ProtocolName": "fMRI_3",
    "PulseSequenceDetails": "%SiemensSeq%_ep2d_pace",
    "ReceiveCoilActiveElements": "HE1-4",
    "ReceiveCoilName": "HeadNeck_20",
    "ReconMatrixPE": 64,
    "RepetitionTime": 2.34,
    "SAR": 0.192509,
    "ScanOptions": "FS",
    "ScanningSequence": "EP",
    "SequenceName": "_epfid2d1_64",
    "SequenceVariant": "SK",
    "SeriesDescription": "fMRI_3",
    "SeriesNumber": 8,
    "ShimSetting": [
      -1501,
      -3609,
      -4388,
      354,
      572,
      276,
      -41,
      -188
    ],
    "SliceThickness": 3,
    "SliceTiming": [
      2.2525,
      2.1825,
      2.115,
      2.0475,
      1.9775,
      1.91,
      1.8425,
      1.7725,
      1.705,
      1.6375,
      1.57,
      1.5,
      1.4325,
      1.365,
      1.295,
      1.2275,
      1.16,
      1.0925,
      1.0225,
      0.955,
      0.8875,
      0.8175,
      0.75,
      0.6825,
      0.6125,
      0.545,
      0.4775,
      0.41,
      0.34,
      0.2725,
      0.205,
      0.135,
      0.0675,
      0
    ],
    "SoftwareVersions": "syngo_MR_D13",
    "SpacingBetweenSlices": 3.3,
    "StationName": "FBMTMR1",
    "TaskName": "read",
    "TotalReadoutTime": 0.0409508,
    "TxRefAmp": 331.195,
    "dataset": "ds003126",
    "dcmmeta_affine": [
      [
        -2.9996089935302734,
        -0.04712165519595146,
        -0.012308631092309952,
        99.26802825927734
      ],
      [
        -0.043208472430706024,
        2.9168014526367188,
        -0.7703164219856262,
        -108.91786193847656
      ],
      [
        -0.021878914907574654,
        0.7000352740287781,
        3.2088098526000977,
        -38.42063903808594
      ],
      [
        0.0,
        0.0,
        0.0,
        1.0
      ]
    ],
    "dcmmeta_reorient_transform": [
      [
        0.0,
        -1.0,
        0.0,
        63.0
      ],
      [
        1.0,
        0.0,
        0.0,
        0.0
      ],
      [
        0.0,
        0.0,
        1.0,
        0.0
      ],
      [
        0.0,
        0.0,
        0.0,
        1.0
      ]
    ],
    "dcmmeta_shape": [
      64,
      64,
      34,
      123
    ],
    "dcmmeta_slice_dim": 2,
    "dcmmeta_version": 0.6,
    "global": {
      "const": {
        "AcquisitionMatrix": [
          64,
          0,
          0,
          64
        ],
        "AngioFlag": "N",
        "BitsAllocated": 16,
        "BitsStored": 12,
        "BodyPartExamined": "HEAD",
        "Columns": 384,
        "EchoNumbers": 1,
        "EchoTime": 33.0,
        "EchoTrainLength": 64,
        "FlipAngle": 90.0,
        "HighBit": 11,
        "ImageOrientationPatient": [
          0.99986967711037,
          0.01440282462937,
          -0.0072929718161,
          -0.015707218982,
          0.97226712057562,
          -0.2333450867694
        ],
        "ImagePositionPatient": [
          -568.69734335709,
          -548.44219826779,
          121.1878516403
        ],
        "ImageType": [
          "ORIGINAL",
          "PRIMARY",
          "M",
          "ND",
          "NORM",
          "MOSAIC"
        ],
        "ImagedNucleus": "1H",
        "ImagingFrequency": 123.214455,
        "InPlanePhaseEncodingDirection": "COL",
        "MRAcquisitionType": "2D",
        "MagneticFieldStrength": 3.0,
        "Manufacturer": "SIEMENS",
        "ManufacturerModelName": "Skyra",
        "Modality": "MR",
        "NumberOfAverages": 1.0,
        "NumberOfPhaseEncodingSteps": 64,
        "PercentPhaseFieldOfView": 100.0,
        "PercentSampling": 100.0,
        "PerformedProcedureStepStartTime": "141526.896000",
        "PhotometricInterpretation": "MONOCHROME2",
        "PixelBandwidth": 1700.0,
        "PixelRepresentation": 0,
        "PixelSpacing": [
          3.0,
          3.0
        ],
        "ProtocolName": "fMRI_3",
        "RepetitionTime": 2340.0,
        "Rows": 384,
        "SAR": 0.19250916228502,
        "SamplesPerPixel": 1,
        "ScanOptions": "FS",
        "ScanningSequence": "EP",
        "SequenceName": "*epfid2d1_64",
        "SequenceVariant": "SK",
        "SeriesDescription": "fMRI_3",
        "SeriesNumber": 8,
        "SeriesTime": "143032.093000",
        "SliceLocation": -12.304592876884,
        "SliceThickness": 3.0,
        "SmallestImagePixelValue": 0,
        "SoftwareVersions": "syngo MR D13",
        "SpacingBetweenSlices": 3.299999910276,
        "SpecificCharacterSet": "ISO_IR 100",
        "StudyID": "1",
        "StudyTime": "141526.839000",
        "TransmitCoilName": "Body",
        "VariableFlipAngleFlag": "N",
        "WindowCenterWidthExplanation": "Algo1",
        "dBdt": 0.0
      },
      "slices": {}
    },
    "modality": "bold",
    "run_id": 3,
    "session_id": "2",
    "subject_id": "047EPKL011005",
    "task_id": "read",
    "time": {
      "samples": {
        "AcquisitionNumber": [
          1,
          2,
          3,
          4,
          5,
          6,
          7,
          8,
          9,
          10,
          11,
          12,
          13,
          14,
          15,
          16,
          17,
          18,
          19,
          20,
          21,
          22,
          23,
          24,
          25,
          26,
          27,
          28,
          29,
          30,
          31,
          32,
          33,
          34,
          35,
          36,
          37,
          38,
          39,
          40,
          41,
          42,
          43,
          44,
          45,
          46,
          47,
          48,
          49,
          50,
          51,
          52,
          53,
          54,
          55,
          56,
          57,
          58,
          59,
          60,
          61,
          62,
          63,
          64,
          65,
          66,
          67,
          68,
          69,
          70,
          71,
          72,
          73,
          74,
          75,
          76,
          77,
          78,
          79,
          80,
          81,
          82,
          83,
          84,
          85,
          86,
          87,
          88,
          89,
          90,
          91,
          92,
          93,
          94,
          95,
          96,
          97,
          98,
          99,
          100,
          101,
          102,
          103,
          104,
          105,
          106,
          107,
          108,
          109,
          110,
          111,
          112,
          113,
          114,
          115,
          116,
          117,
          118,
          119,
          120,
          121,
          122,
          123
        ],
        "AcquisitionTime": [
          "142929.940000",
          "142932.280000",
          "142934.620000",
          "142936.960000",
          "142939.300000",
          "142941.640000",
          "142943.980000",
          "142946.320000",
          "142948.660000",
          "142951.000000",
          "142953.340000",
          "142955.680000",
          "142958.020000",
          "143000.360000",
          "143002.700000",
          "143005.040000",
          "143007.380000",
          "143009.720000",
          "143012.060000",
          "143014.400000",
          "143016.740000",
          "143019.080000",
          "143021.420000",
          "143023.760000",
          "143026.100000",
          "143028.440000",
          "143030.780000",
          "143033.120000",
          "143035.460000",
          "143037.800000",
          "143040.140000",
          "143042.480000",
          "143044.820000",
          "143047.160000",
          "143049.500000",
          "143051.840000",
          "143054.180000",
          "143056.520000",
          "143058.860000",
          "143101.200000",
          "143103.540000",
          "143105.880000",
          "143108.220000",
          "143110.560000",
          "143112.900000",
          "143115.240000",
          "143117.580000",
          "143119.920000",
          "143122.260000",
          "143124.600000",
          "143126.940000",
          "143129.280000",
          "143131.620000",
          "143133.960000",
          "143136.300000",
          "143138.640000",
          "143140.980000",
          "143143.320000",
          "143145.660000",
          "143148.000000",
          "143150.340000",
          "143152.680000",
          "143155.020000",
          "143157.360000",
          "143159.700000",
          "143202.040000",
          "143204.380000",
          "143206.720000",
          "143209.060000",
          "143211.400000",
          "143213.740000",
          "143216.080000",
          "143218.420000",
          "143220.760000",
          "143223.100000",
          "143225.440000",
          "143227.780000",
          "143230.120000",
          "143232.460000",
          "143234.800000",
          "143237.140000",
          "143239.480000",
          "143241.820000",
          "143244.160000",
          "143246.500000",
          "143248.840000",
          "143251.180000",
          "143253.520000",
          "143255.860000",
          "143258.200000",
          "143300.540000",
          "143302.880000",
          "143305.220000",
          "143307.560000",
          "143309.900000",
          "143312.240000",
          "143314.580000",
          "143316.920000",
          "143319.260000",
          "143321.600000",
          "143323.940000",
          "143326.280000",
          "143328.620000",
          "143330.960000",
          "143333.300000",
          "143335.640000",
          "143337.980000",
          "143340.320000",
          "143342.660000",
          "143345.000000",
          "143347.340000",
          "143349.680000",
          "143352.020000",
          "143354.360000",
          "143356.700000",
          "143359.040000",
          "143401.380000",
          "143403.720000",
          "143406.060000",
          "143408.400000",
          "143410.740000",
          "143413.080000",
          "143415.420000"
        ],
        "ContentTime": [
          "143032.097000",
          "143032.108000",
          "143032.110000",
          "143032.113000",
          "143032.115000",
          "143032.118000",
          "143032.121000",
          "143032.123000",
          "143032.126000",
          "143032.129000",
          "143032.132000",
          "143032.134000",
          "143032.137000",
          "143032.140000",
          "143032.142000",
          "143032.145000",
          "143032.148000",
          "143032.150000",
          "143032.153000",
          "143032.156000",
          "143032.158000",
          "143032.161000",
          "143032.164000",
          "143032.166000",
          "143032.169000",
          "143032.172000",
          "143032.174000",
          "143132.092000",
          "143132.101000",
          "143132.104000",
          "143132.107000",
          "143132.123000",
          "143132.126000",
          "143132.129000",
          "143132.132000",
          "143132.134000",
          "143132.137000",
          "143132.140000",
          "143132.142000",
          "143132.145000",
          "143132.148000",
          "143132.150000",
          "143132.153000",
          "143132.156000",
          "143132.158000",
          "143132.164000",
          "143132.167000",
          "143132.169000",
          "143132.172000",
          "143132.175000",
          "143132.177000",
          "143132.180000",
          "143232.090000",
          "143232.093000",
          "143232.096000",
          "143232.103000",
          "143232.105000",
          "143232.108000",
          "143232.111000",
          "143232.114000",
          "143232.117000",
          "143232.120000",
          "143232.123000",
          "143232.126000",
          "143232.129000",
          "143232.132000",
          "143232.140000",
          "143232.144000",
          "143232.147000",
          "143232.149000",
          "143232.152000",
          "143232.155000",
          "143232.158000",
          "143232.160000",
          "143232.163000",
          "143232.166000",
          "143232.169000",
          "143232.171000",
          "143332.090000",
          "143332.094000",
          "143332.097000",
          "143332.100000",
          "143332.103000",
          "143332.106000",
          "143332.108000",
          "143332.112000",
          "143332.114000",
          "143332.117000",
          "143332.120000",
          "143332.123000",
          "143332.131000",
          "143332.134000",
          "143332.137000",
          "143332.140000",
          "143332.143000",
          "143332.146000",
          "143332.148000",
          "143332.151000",
          "143332.154000",
          "143332.157000",
          "143332.159000",
          "143332.162000",
          "143332.165000",
          "143332.168000",
          "143418.074000",
          "143418.078000",
          "143418.081000",
          "143418.091000",
          "143418.096000",
          "143418.100000",
          "143418.103000",
          "143418.106000",
          "143418.109000",
          "143418.112000",
          "143418.117000",
          "143418.120000",
          "143418.123000",
          "143418.126000",
          "143418.129000",
          "143418.132000",
          "143418.135000",
          "143418.138000",
          "143418.141000"
        ],
        "InstanceCreationTime": [
          "143032.097000",
          "143032.108000",
          "143032.110000",
          "143032.113000",
          "143032.115000",
          "143032.118000",
          "143032.121000",
          "143032.123000",
          "143032.126000",
          "143032.129000",
          "143032.132000",
          "143032.134000",
          "143032.137000",
          "143032.140000",
          "143032.142000",
          "143032.145000",
          "143032.148000",
          "143032.150000",
          "143032.153000",
          "143032.156000",
          "143032.158000",
          "143032.161000",
          "143032.164000",
          "143032.166000",
          "143032.169000",
          "143032.172000",
          "143032.174000",
          "143132.092000",
          "143132.101000",
          "143132.104000",
          "143132.107000",
          "143132.123000",
          "143132.126000",
          "143132.129000",
          "143132.132000",
          "143132.134000",
          "143132.137000",
          "143132.140000",
          "143132.142000",
          "143132.145000",
          "143132.148000",
          "143132.150000",
          "143132.153000",
          "143132.156000",
          "143132.158000",
          "143132.164000",
          "143132.167000",
          "143132.169000",
          "143132.172000",
          "143132.175000",
          "143132.177000",
          "143132.180000",
          "143232.090000",
          "143232.093000",
          "143232.096000",
          "143232.103000",
          "143232.105000",
          "143232.108000",
          "143232.111000",
          "143232.114000",
          "143232.117000",
          "143232.120000",
          "143232.123000",
          "143232.126000",
          "143232.129000",
          "143232.132000",
          "143232.140000",
          "143232.144000",
          "143232.147000",
          "143232.149000",
          "143232.152000",
          "143232.155000",
          "143232.158000",
          "143232.160000",
          "143232.163000",
          "143232.166000",
          "143232.169000",
          "143232.171000",
          "143332.090000",
          "143332.094000",
          "143332.097000",
          "143332.100000",
          "143332.103000",
          "143332.106000",
          "143332.108000",
          "143332.112000",
          "143332.114000",
          "143332.117000",
          "143332.120000",
          "143332.123000",
          "143332.131000",
          "143332.134000",
          "143332.137000",
          "143332.140000",
          "143332.143000",
          "143332.146000",
          "143332.148000",
          "143332.151000",
          "143332.154000",
          "143332.157000",
          "143332.159000",
          "143332.162000",
          "143332.165000",
          "143332.168000",
          "143418.074000",
          "143418.078000",
          "143418.081000",
          "143418.091000",
          "143418.096000",
          "143418.100000",
          "143418.103000",
          "143418.106000",
          "143418.109000",
          "143418.112000",
          "143418.117000",
          "143418.120000",
          "143418.123000",
          "143418.126000",
          "143418.129000",
          "143418.132000",
          "143418.135000",
          "143418.138000",
          "143418.141000"
        ],
        "InstanceNumber": [
          1,
          2,
          3,
          4,
          5,
          6,
          7,
          8,
          9,
          10,
          11,
          12,
          13,
          14,
          15,
          16,
          17,
          18,
          19,
          20,
          21,
          22,
          23,
          24,
          25,
          26,
          27,
          28,
          29,
          30,
          31,
          32,
          33,
          34,
          35,
          36,
          37,
          38,
          39,
          40,
          41,
          42,
          43,
          44,
          45,
          46,
          47,
          48,
          49,
          50,
          51,
          52,
          53,
          54,
          55,
          56,
          57,
          58,
          59,
          60,
          61,
          62,
          63,
          64,
          65,
          66,
          67,
          68,
          69,
          70,
          71,
          72,
          73,
          74,
          75,
          76,
          77,
          78,
          79,
          80,
          81,
          82,
          83,
          84,
          85,
          86,
          87,
          88,
          89,
          90,
          91,
          92,
          93,
          94,
          95,
          96,
          97,
          98,
          99,
          100,
          101,
          102,
          103,
          104,
          105,
          106,
          107,
          108,
          109,
          110,
          111,
          112,
          113,
          114,
          115,
          116,
          117,
          118,
          119,
          120,
          121,
          122,
          123
        ],
        "LargestImagePixelValue": [
          1990,
          2122,
          2564,
          2615,
          2814,
          2356,
          1902,
          1871,
          1896,
          2063,
          1971,
          1863,
          2486,
          1940,
          1837,
          1859,
          1945,
          2161,
          2297,
          2115,
          1795,
          2002,
          1842,
          1847,
          1917,
          1877,
          1873,
          2630,
          2191,
          2286,
          1951,
          1883,
          1754,
          1843,
          2372,
          2762,
          2695,
          1908,
          1863,
          1808,
          1936,
          1827,
          1894,
          2901,
          2743,
          2338,
          2078,
          1923,
          1983,
          1909,
          2161,
          1923,
          1879,
          1911,
          1787,
          1776,
          2588,
          2855,
          1845,
          1935,
          1900,
          1881,
          2114,
          2347,
          2632,
          2629,
          2777,
          2042,
          2465,
          1879,
          2104,
          2461,
          1801,
          1899,
          1836,
          1825,
          1888,
          1828,
          2182,
          1931,
          2047,
          2470,
          2781,
          2783,
          1916,
          1860,
          1892,
          2083,
          1923,
          2187,
          2601,
          2265,
          1832,
          2386,
          2482,
          1953,
          1765,
          1871,
          2653,
          1956,
          2639,
          1906,
          1937,
          1968,
          2507,
          3050,
          1938,
          1889,
          1858,
          2022,
          2819,
          2232,
          1921,
          2739,
          2731,
          2162,
          1831,
          1824,
          2035,
          2041,
          1994,
          1809,
          2358
        ],
        "WindowCenter": [
          798.0,
          797.0,
          797.0,
          791.0,
          788.0,
          785.0,
          783.0,
          785.0,
          788.0,
          791.0,
          791.0,
          794.0,
          791.0,
          790.0,
          792.0,
          792.0,
          793.0,
          793.0,
          794.0,
          793.0,
          791.0,
          795.0,
          793.0,
          794.0,
          796.0,
          795.0,
          795.0,
          796.0,
          793.0,
          795.0,
          793.0,
          796.0,
          796.0,
          795.0,
          796.0,
          798.0,
          791.0,
          792.0,
          794.0,
          794.0,
          795.0,
          799.0,
          799.0,
          801.0,
          790.0,
          787.0,
          786.0,
          787.0,
          786.0,
          788.0,
          791.0,
          790.0,
          794.0,
          796.0,
          796.0,
          798.0,
          796.0,
          797.0,
          792.0,
          795.0,
          793.0,
          795.0,
          797.0,
          799.0,
          800.0,
          797.0,
          793.0,
          788.0,
          790.0,
          789.0,
          790.0,
          787.0,
          786.0,
          788.0,
          789.0,
          792.0,
          793.0,
          797.0,
          796.0,
          801.0,
          798.0,
          799.0,
          798.0,
          797.0,
          795.0,
          795.0,
          796.0,
          797.0,
          797.0,
          803.0,
          799.0,
          798.0,
          796.0,
          799.0,
          796.0,
          801.0,
          797.0,
          798.0,
          797.0,
          795.0,
          793.0,
          793.0,
          796.0,
          796.0,
          796.0,
          798.0,
          792.0,
          796.0,
          798.0,
          799.0,
          799.0,
          800.0,
          798.0,
          799.0,
          795.0,
          797.0,
          794.0,
          795.0,
          799.0,
          797.0,
          798.0,
          798.0,
          799.0
        ],
        "WindowWidth": [
          1683.0,
          1681.0,
          1680.0,
          1668.0,
          1661.0,
          1652.0,
          1648.0,
          1651.0,
          1658.0,
          1666.0,
          1664.0,
          1675.0,
          1668.0,
          1662.0,
          1668.0,
          1669.0,
          1670.0,
          1671.0,
          1675.0,
          1672.0,
          1666.0,
          1676.0,
          1671.0,
          1674.0,
          1678.0,
          1675.0,
          1678.0,
          1678.0,
          1670.0,
          1674.0,
          1668.0,
          1681.0,
          1677.0,
          1677.0,
          1680.0,
          1683.0,
          1665.0,
          1672.0,
          1673.0,
          1673.0,
          1676.0,
          1685.0,
          1688.0,
          1691.0,
          1662.0,
          1657.0,
          1654.0,
          1658.0,
          1654.0,
          1658.0,
          1665.0,
          1662.0,
          1672.0,
          1676.0,
          1677.0,
          1683.0,
          1681.0,
          1681.0,
          1668.0,
          1675.0,
          1672.0,
          1677.0,
          1683.0,
          1684.0,
          1687.0,
          1681.0,
          1673.0,
          1660.0,
          1663.0,
          1663.0,
          1665.0,
          1658.0,
          1653.0,
          1660.0,
          1661.0,
          1668.0,
          1669.0,
          1680.0,
          1676.0,
          1692.0,
          1684.0,
          1685.0,
          1685.0,
          1683.0,
          1673.0,
          1675.0,
          1677.0,
          1682.0,
          1680.0,
          1696.0,
          1688.0,
          1681.0,
          1677.0,
          1686.0,
          1681.0,
          1685.0,
          1682.0,
          1683.0,
          1680.0,
          1675.0,
          1672.0,
          1668.0,
          1677.0,
          1677.0,
          1677.0,
          1687.0,
          1668.0,
          1676.0,
          1684.0,
          1686.0,
          1685.0,
          1687.0,
          1681.0,
          1690.0,
          1676.0,
          1680.0,
          1671.0,
          1677.0,
          1684.0,
          1680.0,
          1683.0,
          1682.0,
          1689.0
        ]
      },
      "slices": {}
    }
  },
  "dummy_trs": 0,
  "dvars_nstd": 47.60259883155736,
  "dvars_std": 1.2744371731967212,
  "dvars_vstd": 1.0234700720491805,
  "efc": 0.5814167543617736,
  "fber": 1290.5474853515625,
  "fd_mean": 0.6885649828645007,
  "fd_num": 117,
  "fd_perc": 95.1219512195122,
  "fwhm_avg": 1.6031564719435476,
  "fwhm_x": 1.5142866666666668,
  "fwhm_y": 1.7801766666666667,
  "fwhm_z": 1.515006082497309,
  "gcor": 0.076673,
  "gsr_x": -0.002463584067299962,
  "gsr_y": 0.032954078167676926,
  "provenance": {
    "md5sum": "3abe6a4579c9a61270d00e2038f561a8",
    "settings": {
      "fd_thres": 0.2,
      "testing": false
    },
    "software": "mriqc",
    "version": "22.0.1",
    "webapi_port": null,
    "webapi_url": "https://mriqc.nimh.nih.gov/api/v1"
  },
  "size_t": 123,
  "size_x": 64,
  "size_y": 64,
  "size_z": 34,
  "snr": 7.307331056353636,
  "spacing_tr": 2.3399999141693115,
  "spacing_x": 3.0,
  "spacing_y": 3.0,
  "spacing_z": 3.299999952316284,
  "summary_bg_k": 58.91202766692511,
  "summary_bg_mad": 11.053220773903545,
  "summary_bg_mean": 36.56062316894531,
  "summary_bg_median": 24.47154426574707,
  "summary_bg_n": 71165.0,
  "summary_bg_p05": 12.91869831085205,
  "summary_bg_p95": 94.30081176757812,
  "summary_bg_stdv": 46.34833908081055,
  "summary_fg_k": 4.490892561421282,
  "summary_fg_mad": 112.32820242172805,
  "summary_fg_mean": 903.899169921875,
  "summary_fg_median": 900.9592895507812,
  "summary_fg_n": 35371.0,
  "summary_fg_p05": 732.2276000976562,
  "summary_fg_p95": 1087.983642578125,
  "summary_fg_stdv": 123.29351806640625,
  "tsnr": 41.4318544913549
}