{
  "aor": 0.006585433070866142,
  "aqi": 0.02489760401574804,
  "bids_meta": {
    "AcquisitionMatrixPE": 64,
    "AcquisitionNumber": 1,
    "AcquisitionTime": "14:23:31.887500",
    "BandwidthPerPixelPhaseEncode": 24.038,
    "BaseResolution": 64,
    "BodyPartExamined": "HEAD",
    "ConsistencyInfo": "N4_VD13A_LATEST_20120616",
    "ConversionSoftware": "dcm2niix",
    "ConversionSoftwareVersion": "v1.0.20181125  GCC6.3.0",
    "DerivedVendorReportedEchoSpacing": 0.000650012,
    "DeviceSerialNumber": "45250",
    "DwellTime": 4.6e-06,
    "EchoTime": 0.033,
    "EchoTrainLength": 64,
    "EffectiveEchoSpacing": 0.000650012,
    "FlipAngle": 90,
    "ImageOrientationPatientDICOM": [
      0.99987,
      0.0144028,
      -0.00729297,
      -0.0157072,
      0.972267,
      -0.233345
    ],
    "ImageType": [
      "ORIGINAL",
      "PRIMARY",
      "M",
      "ND",
      "NORM",
      "MOSAIC"
    ],
    "ImagingFrequency": 123.214,
    "InPlanePhaseEncodingDirectionDICOM": "COL",
    "InstitutionAddress": "Kopernikusstr._26_Graz_Graz_AT_8010",
    "InstitutionName": "KFU",
    "InstitutionalDepartmentName": "Department",
    "MRAcquisitionType": "2D",
    "MagneticFieldStrength": 3,
    "Manufacturer": "Siemens",
    "ManufacturersModelName": "Skyra",
    "Modality": "MR",
    "PartialFourier": 1,
    "PatientPosition": "HFS",
    "PercentPhaseFOV": 100,
    "PhaseEncodingDirection": "j-",
    "PhaseEncodingSteps": 64,
    "PhaseResolution": 1,
    "PixelBandwidth": 1700,
    "ProcedureStepDescription": "KFU_Entw-Psy",
    "ProtocolName": "fMRI_2",
    "PulseSequenceDetails": "%SiemensSeq%_ep2d_pace",
    "ReceiveCoilActiveElements": "HE1-4",
    "ReceiveCoilName": "HeadNeck_20",
    "ReconMatrixPE": 64,
    "RepetitionTime": 2.34,
    "SAR": 0.192509,
    "ScanOptions": "FS",
    "ScanningSequence": "EP",
    "SequenceName": "_epfid2d1_64",
    "SequenceVariant": "SK",
    "SeriesDescription": "fMRI_2",
    "SeriesNumber": 5,
    "ShimSetting": [
      -1501,
      -3612,
      -4393,
      348,
      571,
      277,
      -21,
      -183
    ],
    "SliceThickness": 3,
    "SliceTiming": [
      2.2525,
      2.1825,
      2.115,
      2.0475,
      1.9775,
      1.91,
      1.8425,
      1.7725,
      1.705,
      1.6375,
      1.57,
      1.5,
      1.4325,
      1.365,
      1.295,
      1.2275,
      1.16,
      1.0925,
      1.0225,
      0.955,
      0.8875,
      0.8175,
      0.75,
      0.6825,
      0.615,
      0.545,
      0.4775,
      0.41,
      0.34,
      0.2725,
      0.205,
      0.135,
      0.0675,
      0
    ],
    "SoftwareVersions": "syngo_MR_D13",
    "SpacingBetweenSlices": 3.3,
    "StationName": "FBMTMR1",
    "TaskName": "read",
    "TotalReadoutTime": 0.0409508,
    "TxRefAmp": 331.195,
    "dataset": "ds003126",
    "dcmmeta_affine": [
      [
        -2.9996089935302734,
        -0.04712165519595146,
        -0.012308632023632526,
        99.26802825927734
      ],
      [
        -0.043208472430706024,
        2.9168014526367188,
        -0.770316481590271,
        -108.91786193847656
      ],
      [
        -0.021878914907574654,
        0.7000352740287781,
        3.2088098526000977,
        -37.09688949584961
      ],
      [
        0.0,
        0.0,
        0.0,
        1.0
      ]
    ],
    "dcmmeta_reorient_transform": [
      [
        0.0,
        -1.0,
        0.0,
        63.0
      ],
      [
        1.0,
        0.0,
        0.0,
        0.0
      ],
      [
        0.0,
        0.0,
        1.0,
        0.0
      ],
      [
        0.0,
        0.0,
        0.0,
        1.0
      ]
    ],
    "dcmmeta_shape": [
      64,
      64,
      34,
      130
    ],
    "dcmmeta_slice_dim": 2,
    "dcmmeta_version": 0.6,
    "global": {
      "const": {
        "AcquisitionMatrix": [
          64,
          0,
          0,
          64
        ],
        "AngioFlag": "N",
        "BitsAllocated": 16,
        "BitsStored": 12,
        "BodyPartExamined": "HEAD",
        "Columns": 384,
        "EchoNumbers": 1,
        "EchoTime": 33.0,
        "EchoTrainLength": 64,
        "FlipAngle": 90.0,
        "HighBit": 11,
        "ImageOrientationPatient": [
          0.99986967711037,
          0.01440282462937,
          -0.0072929718161,
          -0.015707218982,
          0.97226712057562,
          -0.2333450867694
        ],
        "ImagePositionPatient": [
          -568.69734335709,
          -548.44219826779,
          122.51160118253
        ],
        "ImageType": [
          "ORIGINAL",
          "PRIMARY",
          "M",
          "ND",
          "NORM",
          "MOSAIC"
        ],
        "ImagedNucleus": "1H",
        "ImagingFrequency": 123.214442,
        "InPlanePhaseEncodingDirection": "COL",
        "MRAcquisitionType": "2D",
        "MagneticFieldStrength": 3.0,
        "Manufacturer": "SIEMENS",
        "ManufacturerModelName": "Skyra",
        "Modality": "MR",
        "NumberOfAverages": 1.0,
        "NumberOfPhaseEncodingSteps": 64,
        "PercentPhaseFieldOfView": 100.0,
        "PercentSampling": 100.0,
        "PerformedProcedureStepStartTime": "141526.896000",
        "PhotometricInterpretation": "MONOCHROME2",
        "PixelBandwidth": 1700.0,
        "PixelRepresentation": 0,
        "PixelSpacing": [
          3.0,
          3.0
        ],
        "ProtocolName": "fMRI_2",
        "RepetitionTime": 2340.0,
        "Rows": 384,
        "SAR": 0.19250916228502,
        "SamplesPerPixel": 1,
        "ScanOptions": "FS",
        "ScanningSequence": "EP",
        "SequenceName": "*epfid2d1_64",
        "SequenceVariant": "SK",
        "SeriesDescription": "fMRI_2",
        "SeriesNumber": 5,
        "SeriesTime": "142418.925000",
        "SliceLocation": -11.017422981987,
        "SliceThickness": 3.0,
        "SmallestImagePixelValue": 0,
        "SoftwareVersions": "syngo MR D13",
        "SpacingBetweenSlices": 3.3000000226786,
        "SpecificCharacterSet": "ISO_IR 100",
        "StudyID": "1",
        "StudyTime": "141526.839000",
        "TransmitCoilName": "Body",
        "VariableFlipAngleFlag": "N",
        "WindowCenterWidthExplanation": "Algo1",
        "dBdt": 0.0
      },
      "slices": {}
    },
    "modality": "bold",
    "run_id": 2,
    "session_id": "2",
    "subject_id": "047EPKL011005",
    "task_id": "read",
    "time": {
      "samples": {
        "AcquisitionNumber": [
          1,
          2,
          3,
          4,
          5,
          6,
          7,
          8,
          9,
          10,
          11,
          12,
          13,
          14,
          15,
          16,
          17,
          18,
          19,
          20,
          21,
          22,
          23,
          24,
          25,
          26,
          27,
          28,
          29,
          30,
          31,
          32,
          33,
          34,
          35,
          36,
          37,
          38,
          39,
          40,
          41,
          42,
          43,
          44,
          45,
          46,
          47,
          48,
          49,
          50,
          51,
          52,
          53,
          54,
          55,
          56,
          57,
          58,
          59,
          60,
          61,
          62,
          63,
          64,
          65,
          66,
          67,
          68,
          69,
          70,
          71,
          72,
          73,
          74,
          75,
          76,
          77,
          78,
          79,
          80,
          81,
          82,
          83,
          84,
          85,
          86,
          87,
          88,
          89,
          90,
          91,
          92,
          93,
          94,
          95,
          96,
          97,
          98,
          99,
          100,
          101,
          102,
          103,
          104,
          105,
          106,
          107,
          108,
          109,
          110,
          111,
          112,
          113,
          114,
          115,
          116,
          117,
          118,
          119,
          120,
          121,
          122,
          123,
          124,
          125,
          126,
          127,
          128,
          129,
          130
        ],
        "AcquisitionTime": [
          "142331.887500",
          "142334.227500",
          "142336.567500",
          "142338.907500",
          "142341.247500",
          "142343.587500",
          "142345.927500",
          "142348.267500",
          "142350.607500",
          "142352.947500",
          "142355.287500",
          "142357.627500",
          "142359.967500",
          "142402.307500",
          "142404.647500",
          "142406.987500",
          "142409.327500",
          "142411.667500",
          "142414.007500",
          "142416.347500",
          "142418.687500",
          "142421.027500",
          "142423.367500",
          "142425.707500",
          "142428.047500",
          "142430.387500",
          "142432.727500",
          "142435.067500",
          "142437.407500",
          "142439.747500",
          "142442.087500",
          "142444.427500",
          "142446.767500",
          "142449.107500",
          "142451.447500",
          "142453.787500",
          "142456.127500",
          "142458.467500",
          "142500.807500",
          "142503.147500",
          "142505.487500",
          "142507.827500",
          "142510.167500",
          "142512.507500",
          "142514.847500",
          "142517.187500",
          "142519.527500",
          "142521.867500",
          "142524.207500",
          "142526.547500",
          "142528.887500",
          "142531.227500",
          "142533.567500",
          "142535.907500",
          "142538.247500",
          "142540.587500",
          "142542.927500",
          "142545.267500",
          "142547.607500",
          "142549.947500",
          "142552.287500",
          "142554.627500",
          "142556.967500",
          "142559.307500",
          "142601.647500",
          "142603.987500",
          "142606.327500",
          "142608.667500",
          "142611.007500",
          "142613.347500",
          "142615.687500",
          "142618.027500",
          "142620.367500",
          "142622.707500",
          "142625.047500",
          "142627.387500",
          "142629.727500",
          "142632.067500",
          "142634.407500",
          "142636.747500",
          "142639.087500",
          "142641.427500",
          "142643.767500",
          "142646.107500",
          "142648.447500",
          "142650.787500",
          "142653.127500",
          "142655.467500",
          "142657.807500",
          "142700.147500",
          "142702.487500",
          "142704.827500",
          "142707.167500",
          "142709.507500",
          "142711.847500",
          "142714.187500",
          "142716.527500",
          "142718.867500",
          "142721.207500",
          "142723.547500",
          "142725.887500",
          "142728.227500",
          "142730.567500",
          "142732.907500",
          "142735.247500",
          "142737.587500",
          "142739.927500",
          "142742.267500",
          "142744.607500",
          "142746.947500",
          "142749.287500",
          "142751.627500",
          "142753.967500",
          "142756.307500",
          "142758.647500",
          "142800.987500",
          "142803.327500",
          "142805.667500",
          "142808.007500",
          "142810.347500",
          "142812.687500",
          "142815.027500",
          "142817.367500",
          "142819.707500",
          "142822.047500",
          "142824.387500",
          "142826.727500",
          "142829.067500",
          "142831.407500",
          "142833.747500"
        ],
        "ContentTime": [
          "142418.930000",
          "142418.937000",
          "142418.940000",
          "142418.943000",
          "142418.946000",
          "142418.948000",
          "142418.951000",
          "142418.954000",
          "142418.956000",
          "142418.959000",
          "142418.961000",
          "142418.964000",
          "142418.967000",
          "142418.969000",
          "142418.972000",
          "142418.977000",
          "142418.979000",
          "142418.982000",
          "142418.985000",
          "142418.988000",
          "142438.924000",
          "142438.936000",
          "142438.939000",
          "142438.942000",
          "142438.944000",
          "142438.947000",
          "142438.950000",
          "142438.953000",
          "142438.955000",
          "142538.923000",
          "142538.927000",
          "142538.929000",
          "142538.932000",
          "142538.935000",
          "142538.941000",
          "142538.944000",
          "142538.947000",
          "142538.949000",
          "142538.952000",
          "142538.955000",
          "142538.958000",
          "142538.960000",
          "142538.963000",
          "142538.966000",
          "142538.969000",
          "142538.971000",
          "142538.974000",
          "142538.977000",
          "142538.980000",
          "142538.983000",
          "142538.985000",
          "142538.988000",
          "142538.991000",
          "142538.993000",
          "142538.996000",
          "142638.924000",
          "142638.928000",
          "142638.930000",
          "142638.938000",
          "142638.941000",
          "142638.943000",
          "142638.946000",
          "142638.965000",
          "142638.967000",
          "142638.970000",
          "142638.973000",
          "142638.976000",
          "142638.978000",
          "142638.981000",
          "142638.983000",
          "142638.986000",
          "142638.989000",
          "142638.991000",
          "142638.994000",
          "142638.997000",
          "142639.001000",
          "142639.003000",
          "142639.006000",
          "142639.009000",
          "142639.011000",
          "142738.922000",
          "142738.931000",
          "142738.934000",
          "142738.936000",
          "142738.939000",
          "142738.942000",
          "142738.944000",
          "142738.947000",
          "142738.950000",
          "142738.952000",
          "142738.955000",
          "142738.958000",
          "142738.960000",
          "142738.963000",
          "142738.966000",
          "142738.968000",
          "142738.971000",
          "142738.974000",
          "142738.976000",
          "142738.979000",
          "142738.982000",
          "142738.984000",
          "142738.987000",
          "142738.989000",
          "142738.992000",
          "142738.995000",
          "142834.002000",
          "142834.006000",
          "142834.008000",
          "142834.011000",
          "142834.014000",
          "142834.018000",
          "142834.021000",
          "142834.025000",
          "142834.029000",
          "142834.032000",
          "142834.035000",
          "142834.037000",
          "142834.040000",
          "142834.043000",
          "142834.046000",
          "142834.049000",
          "142834.052000",
          "142834.055000",
          "142834.057000",
          "142834.060000",
          "142834.063000",
          "142834.066000",
          "142834.068000",
          "142834.071000"
        ],
        "InstanceCreationTime": [
          "142418.930000",
          "142418.937000",
          "142418.940000",
          "142418.943000",
          "142418.946000",
          "142418.948000",
          "142418.951000",
          "142418.954000",
          "142418.956000",
          "142418.959000",
          "142418.961000",
          "142418.964000",
          "142418.967000",
          "142418.969000",
          "142418.972000",
          "142418.977000",
          "142418.979000",
          "142418.982000",
          "142418.985000",
          "142418.988000",
          "142438.924000",
          "142438.936000",
          "142438.939000",
          "142438.942000",
          "142438.944000",
          "142438.947000",
          "142438.950000",
          "142438.953000",
          "142438.955000",
          "142538.923000",
          "142538.927000",
          "142538.929000",
          "142538.932000",
          "142538.935000",
          "142538.941000",
          "142538.944000",
          "142538.947000",
          "142538.949000",
          "142538.952000",
          "142538.955000",
          "142538.958000",
          "142538.960000",
          "142538.963000",
          "142538.966000",
          "142538.969000",
          "142538.971000",
          "142538.974000",
          "142538.977000",
          "142538.980000",
          "142538.983000",
          "142538.985000",
          "142538.988000",
          "142538.991000",
          "142538.993000",
          "142538.996000",
          "142638.924000",
          "142638.928000",
          "142638.930000",
          "142638.938000",
          "142638.941000",
          "142638.943000",
          "142638.946000",
          "142638.965000",
          "142638.967000",
          "142638.970000",
          "142638.973000",
          "142638.976000",
          "142638.978000",
          "142638.981000",
          "142638.983000",
          "142638.986000",
          "142638.989000",
          "142638.991000",
          "142638.994000",
          "142638.997000",
          "142639.001000",
          "142639.003000",
          "142639.006000",
          "142639.009000",
          "142639.011000",
          "142738.922000",
          "142738.931000",
          "142738.934000",
          "142738.936000",
          "142738.939000",
          "142738.942000",
          "142738.944000",
          "142738.947000",
          "142738.950000",
          "142738.952000",
          "142738.955000",
          "142738.958000",
          "142738.960000",
          "142738.963000",
          "142738.966000",
          "142738.968000",
          "142738.971000",
          "142738.974000",
          "142738.976000",
          "142738.979000",
          "142738.982000",
          "142738.984000",
          "142738.987000",
          "142738.989000",
          "142738.992000",
          "142738.995000",
          "142834.002000",
          "142834.006000",
          "142834.008000",
          "142834.011000",
          "142834.014000",
          "142834.018000",
          "142834.021000",
          "142834.025000",
          "142834.029000",
          "142834.032000",
          "142834.035000",
          "142834.037000",
          "142834.040000",
          "142834.043000",
          "142834.046000",
          "142834.049000",
          "142834.052000",
          "142834.055000",
          "142834.057000",
          "142834.060000",
          "142834.063000",
          "142834.066000",
          "142834.068000",
          "142834.071000"
        ],
        "InstanceNumber": [
          1,
          2,
          3,
          4,
          5,
          6,
          7,
          8,
          9,
          10,
          11,
          12,
          13,
          14,
          15,
          16,
          17,
          18,
          19,
          20,
          21,
          22,
          23,
          24,
          25,
          26,
          27,
          28,
          29,
          30,
          31,
          32,
          33,
          34,
          35,
          36,
          37,
          38,
          39,
          40,
          41,
          42,
          43,
          44,
          45,
          46,
          47,
          48,
          49,
          50,
          51,
          52,
          53,
          54,
          55,
          56,
          57,
          58,
          59,
          60,
          61,
          62,
          63,
          64,
          65,
          66,
          67,
          68,
          69,
          70,
          71,
          72,
          73,
          74,
          75,
          76,
          77,
          78,
          79,
          80,
          81,
          82,
          83,
          84,
          85,
          86,
          87,
          88,
          89,
          90,
          91,
          92,
          93,
          94,
          95,
          96,
          97,
          98,
          99,
          100,
          101,
          102,
          103,
          104,
          105,
          106,
          107,
          108,
          109,
          110,
          111,
          112,
          113,
          114,
          115,
          116,
          117,
          118,
          119,
          120,
          121,
          122,
          123,
          124,
          125,
          126,
          127,
          128,
          129,
          130
        ],
        "LargestImagePixelValue": [
          2922,
          2141,
          1894,
          1832,
          1836,
          1871,
          2133,
          2120,
          2731,
          2657,
          2909,
          1919,
          1875,
          2138,
          2331,
          1874,
          1853,
          1879,
          1897,
          1919,
          1908,
          2174,
          2489,
          2763,
          2845,
          1853,
          1855,
          1808,
          1911,
          2316,
          2044,
          2120,
          1943,
          2445,
          1959,
          1914,
          2139,
          2051,
          2074,
          2840,
          2964,
          1926,
          1914,
          1977,
          2809,
          2061,
          1947,
          1937,
          1797,
          2150,
          1754,
          2228,
          2802,
          2938,
          2185,
          1915,
          1887,
          2448,
          2192,
          2567,
          1887,
          1889,
          1792,
          1924,
          1988,
          1976,
          2611,
          2850,
          1921,
          2592,
          2758,
          3022,
          2148,
          2063,
          1987,
          1821,
          2005,
          2325,
          1794,
          2085,
          2001,
          1935,
          2390,
          1854,
          1786,
          1948,
          2506,
          2248,
          2614,
          2415,
          1955,
          2034,
          1932,
          2247,
          2300,
          1966,
          2323,
          2085,
          2790,
          3154,
          2952,
          2842,
          2749,
          1991,
          1820,
          1825,
          1945,
          1996,
          2706,
          2639,
          1823,
          1945,
          1831,
          1824,
          2723,
          2212,
          2174,
          2627,
          2586,
          2647,
          1934,
          1933,
          1910,
          1917,
          1855,
          1900,
          2199,
          1936,
          2314,
          2417
        ],
        "WindowCenter": [
          785.0,
          783.0,
          783.0,
          785.0,
          789.0,
          792.0,
          791.0,
          790.0,
          793.0,
          790.0,
          790.0,
          788.0,
          790.0,
          791.0,
          791.0,
          789.0,
          790.0,
          790.0,
          790.0,
          791.0,
          792.0,
          792.0,
          792.0,
          790.0,
          789.0,
          785.0,
          788.0,
          791.0,
          790.0,
          794.0,
          790.0,
          791.0,
          791.0,
          792.0,
          791.0,
          792.0,
          792.0,
          796.0,
          794.0,
          793.0,
          790.0,
          791.0,
          791.0,
          793.0,
          792.0,
          791.0,
          791.0,
          791.0,
          792.0,
          793.0,
          792.0,
          795.0,
          795.0,
          794.0,
          791.0,
          790.0,
          792.0,
          793.0,
          789.0,
          790.0,
          788.0,
          790.0,
          791.0,
          793.0,
          794.0,
          795.0,
          796.0,
          794.0,
          793.0,
          797.0,
          796.0,
          788.0,
          784.0,
          786.0,
          786.0,
          787.0,
          788.0,
          788.0,
          789.0,
          792.0,
          791.0,
          792.0,
          791.0,
          793.0,
          792.0,
          793.0,
          796.0,
          794.0,
          796.0,
          793.0,
          793.0,
          795.0,
          794.0,
          796.0,
          793.0,
          792.0,
          794.0,
          797.0,
          797.0,
          795.0,
          792.0,
          793.0,
          786.0,
          785.0,
          785.0,
          789.0,
          790.0,
          793.0,
          793.0,
          789.0,
          789.0,
          791.0,
          794.0,
          796.0,
          798.0,
          798.0,
          794.0,
          796.0,
          790.0,
          788.0,
          790.0,
          792.0,
          792.0,
          795.0,
          791.0,
          796.0,
          795.0,
          796.0,
          799.0,
          797.0
        ],
        "WindowWidth": [
          1656.0,
          1650.0,
          1652.0,
          1656.0,
          1665.0,
          1673.0,
          1672.0,
          1669.0,
          1675.0,
          1669.0,
          1669.0,
          1663.0,
          1668.0,
          1673.0,
          1671.0,
          1667.0,
          1668.0,
          1669.0,
          1667.0,
          1670.0,
          1672.0,
          1674.0,
          1674.0,
          1670.0,
          1667.0,
          1657.0,
          1664.0,
          1671.0,
          1668.0,
          1680.0,
          1668.0,
          1671.0,
          1673.0,
          1677.0,
          1672.0,
          1672.0,
          1673.0,
          1682.0,
          1679.0,
          1678.0,
          1672.0,
          1668.0,
          1672.0,
          1677.0,
          1675.0,
          1671.0,
          1671.0,
          1672.0,
          1674.0,
          1675.0,
          1674.0,
          1681.0,
          1681.0,
          1678.0,
          1671.0,
          1670.0,
          1675.0,
          1678.0,
          1667.0,
          1670.0,
          1664.0,
          1669.0,
          1671.0,
          1676.0,
          1677.0,
          1682.0,
          1685.0,
          1679.0,
          1675.0,
          1689.0,
          1683.0,
          1664.0,
          1655.0,
          1658.0,
          1659.0,
          1662.0,
          1664.0,
          1664.0,
          1667.0,
          1674.0,
          1671.0,
          1675.0,
          1673.0,
          1674.0,
          1675.0,
          1678.0,
          1685.0,
          1679.0,
          1686.0,
          1678.0,
          1676.0,
          1680.0,
          1679.0,
          1684.0,
          1677.0,
          1674.0,
          1678.0,
          1686.0,
          1687.0,
          1683.0,
          1677.0,
          1676.0,
          1658.0,
          1660.0,
          1656.0,
          1666.0,
          1670.0,
          1675.0,
          1673.0,
          1667.0,
          1665.0,
          1670.0,
          1678.0,
          1685.0,
          1688.0,
          1688.0,
          1683.0,
          1685.0,
          1669.0,
          1665.0,
          1668.0,
          1674.0,
          1675.0,
          1679.0,
          1669.0,
          1685.0,
          1681.0,
          1683.0,
          1689.0,
          1689.0
        ]
      },
      "slices": {}
    }
  },
  "dummy_trs": 3,
  "dvars_nstd": 45.47488978515874,
  "dvars_std": 1.2962763442857144,
  "dvars_vstd": 1.0474109367460316,
  "efc": 0.5758104155686178,
  "fber": 1356.9058837890625,
  "fd_mean": 0.7347524142072704,
  "fd_num": 119,
  "fd_perc": 93.7007874015748,
  "fwhm_avg": 1.5963476839101343,
  "fwhm_x": 1.5169133333333333,
  "fwhm_y": 1.7892266666666667,
  "fwhm_z": 1.4829030517304023,
  "gcor": 0.0486601,
  "gsr_x": 0.0005691611440852284,
  "gsr_y": 0.03228186070919037,
  "provenance": {
    "md5sum": "292d38ed10b6d7f4100ac968618f1e89",
    "settings": {
      "fd_thres": 0.2,
      "testing": false
    },
    "software": "mriqc",
    "version": "22.0.1",
    "webapi_port": null,
    "webapi_url": "https://mriqc.nimh.nih.gov/api/v1"
  },
  "size_t": 127,
  "size_x": 64,
  "size_y": 64,
  "size_z": 34,
  "snr": 7.2995389507110655,
  "spacing_tr": 2.3399999141693115,
  "spacing_x": 3.0,
  "spacing_y": 3.0,
  "spacing_z": 3.299999952316284,
  "summary_bg_k": 59.79590004984626,
  "summary_bg_mad": 10.798480524938016,
  "summary_bg_mean": 35.749935150146484,
  "summary_bg_median": 24.08661460876465,
  "summary_bg_n": 72080.0,
  "summary_bg_p05": 12.78740119934082,
  "summary_bg_p95": 91.43346099853518,
  "summary_bg_stdv": 44.96062469482422,
  "summary_fg_k": 4.682663951472517,
  "summary_fg_mad": 111.3177362551666,
  "summary_fg_mean": 907.46337890625,
  "summary_fg_median": 904.1771240234375,
  "summary_fg_n": 34902.0,
  "summary_fg_p05": 734.6067169189453,
  "summary_fg_p95": 1090.6523803710936,
  "summary_fg_stdv": 123.86592864990234,
  "tsnr": 43.94792464002967
}