{
  "aor": 0.001379763779527559,
  "aqi": 0.015331755984251967,
  "bids_meta": {
    "AcquisitionMatrixPE": 64,
    "AcquisitionNumber": 1,
    "AcquisitionTime": "11:33:8.435000",
    "BandwidthPerPixelPhaseEncode": 24.038,
    "BaseResolution": 64,
    "BodyPartExamined": "HEAD",
    "ConsistencyInfo": "N4_VD13A_LATEST_20120616",
    "ConversionSoftware": "dcm2niix",
    "ConversionSoftwareVersion": "v1.0.20181125  GCC6.3.0",
    "DerivedVendorReportedEchoSpacing": 0.000650012,
    "DeviceSerialNumber": "45250",
    "DwellTime": 4.6e-06,
    "EchoTime": 0.033,
    "EchoTrainLength": 64,
    "EffectiveEchoSpacing": 0.000650012,
    "FlipAngle": 90,
    "ImageOrientationPatientDICOM": [
      0.997659,
      0.0651683,
      -0.0207169,
      -0.0680136,
      0.977055,
      -0.201837
    ],
    "ImageType": [
      "ORIGINAL",
      "PRIMARY",
      "M",
      "ND",
      "NORM",
      "MOSAIC"
    ],
    "ImagingFrequency": 123.215,
    "InPlanePhaseEncodingDirectionDICOM": "COL",
    "InstitutionAddress": "Kopernikusstr._26_Graz_Graz_AT_8010",
    "InstitutionName": "KFU",
    "InstitutionalDepartmentName": "Department",
    "MRAcquisitionType": "2D",
    "MagneticFieldStrength": 3,
    "Manufacturer": "Siemens",
    "ManufacturersModelName": "Skyra",
    "Modality": "MR",
    "PartialFourier": 1,
    "PatientPosition": "HFS",
    "PercentPhaseFOV": 100,
    "PhaseEncodingDirection": "j-",
    "PhaseEncodingSteps": 64,
    "PhaseResolution": 1,
    "PixelBandwidth": 1700,
    "ProcedureStepDescription": "KFU_Entw-Psy",
    "ProtocolName": "fMRI_1",
    "PulseSequenceDetails": "%SiemensSeq%_ep2d_pace",
    "ReceiveCoilActiveElements": "HE1-4",
    "ReceiveCoilName": "HeadNeck_20",
    "ReconMatrixPE": 64,
    "RepetitionTime": 2.34,
    "SAR": 0.166137,
    "ScanOptions": "FS",
    "ScanningSequence": "EP",
    "SequenceName": "_epfid2d1_64",
    "SequenceVariant": "SK",
    "SeriesDescription": "fMRI_1",
    "SeriesNumber": 2,
    "ShimSetting": [
      -1498,
      -3591,
      -4468,
      232,
      591,
      9,
      -194,
      -311
    ],
    "SliceThickness": 3,
    "SliceTiming": [
      2.2525,
      2.185,
      2.1175,
      2.0475,
      1.98,
      1.9125,
      1.8425,
      1.775,
      1.7075,
      1.6375,
      1.57,
      1.5025,
      1.435,
      1.365,
      1.2975,
      1.23,
      1.16,
      1.0925,
      1.025,
      0.9575,
      0.8875,
      0.82,
      0.7525,
      0.6825,
      0.615,
      0.5475,
      0.4775,
      0.41,
      0.3425,
      0.275,
      0.205,
      0.1375,
      0.07,
      0
    ],
    "SoftwareVersions": "syngo_MR_D13",
    "SpacingBetweenSlices": 3.3,
    "StationName": "FBMTMR1",
    "TaskName": "read",
    "TotalReadoutTime": 0.0409508,
    "TxRefAmp": 324.749,
    "dataset": "ds003126",
    "dcmmeta_affine": [
      [
        -2.9929776191711426,
        -0.20404087007045746,
        -0.023390984162688255,
        101.43888092041016
      ],
      [
        -0.19550485908985138,
        2.931164264678955,
        -0.6691523790359497,
        -101.39359283447266
      ],
      [
        -0.062150683254003525,
        0.6055105924606323,
        3.2313601970672607,
        -42.88453674316406
      ],
      [
        0.0,
        0.0,
        0.0,
        1.0
      ]
    ],
    "dcmmeta_reorient_transform": [
      [
        0.0,
        -1.0,
        0.0,
        63.0
      ],
      [
        1.0,
        0.0,
        0.0,
        0.0
      ],
      [
        0.0,
        0.0,
        1.0,
        0.0
      ],
      [
        0.0,
        0.0,
        0.0,
        1.0
      ]
    ],
    "dcmmeta_shape": [
      64,
      64,
      34,
      127
    ],
    "dcmmeta_slice_dim": 2,
    "dcmmeta_version": 0.6,
    "global": {
      "const": {
        "AcquisitionMatrix": [
          64,
          0,
          0,
          64
        ],
        "AngioFlag": "N",
        "BitsAllocated": 16,
        "BitsStored": 12,
        "BodyPartExamined": "HEAD",
        "Columns": 384,
        "EchoNumbers": 1,
        "EchoTime": 33.0,
        "EchoTrainLength": 64,
        "FlipAngle": 90.0,
        "HighBit": 11,
        "ImageOrientationPatient": [
          0.99765921271217,
          0.06516828676395,
          -0.0207168938501,
          -0.0680136239279,
          0.97705477030692,
          -0.2018368717075
        ],
        "ImagePositionPatient": [
          -534.8141882761,
          -583.53682379884,
          102.08843943543
        ],
        "ImageType": [
          "ORIGINAL",
          "PRIMARY",
          "M",
          "ND",
          "NORM",
          "MOSAIC"
        ],
        "ImagedNucleus": "1H",
        "ImagingFrequency": 123.214563,
        "InPlanePhaseEncodingDirection": "COL",
        "MRAcquisitionType": "2D",
        "MagneticFieldStrength": 3.0,
        "Manufacturer": "SIEMENS",
        "ManufacturerModelName": "Skyra",
        "Modality": "MR",
        "NumberOfAverages": 1.0,
        "NumberOfPhaseEncodingSteps": 64,
        "PercentPhaseFieldOfView": 100.0,
        "PercentSampling": 100.0,
        "PerformedProcedureStepStartTime": "112625.922000",
        "PhotometricInterpretation": "MONOCHROME2",
        "PixelBandwidth": 1700.0,
        "PixelRepresentation": 0,
        "PixelSpacing": [
          3.0,
          3.0
        ],
        "ProtocolName": "fMRI_1",
        "RepetitionTime": 2340.0,
        "Rows": 384,
        "SAR": 0.16613689645558,
        "SamplesPerPixel": 1,
        "ScanOptions": "FS",
        "ScanningSequence": "EP",
        "SequenceName": "*epfid2d1_64",
        "SequenceVariant": "SK",
        "SeriesDescription": "fMRI_1",
        "SeriesNumber": 2,
        "SeriesTime": "113358.326000",
        "SliceLocation": -22.151627531181,
        "SliceThickness": 3.0,
        "SmallestImagePixelValue": 0,
        "SoftwareVersions": "syngo MR D13",
        "SpacingBetweenSlices": 3.3000000886097,
        "SpecificCharacterSet": "ISO_IR 100",
        "StudyID": "1",
        "StudyTime": "112625.878000",
        "TransmitCoilName": "Body",
        "VariableFlipAngleFlag": "N",
        "WindowCenterWidthExplanation": "Algo1",
        "dBdt": 0.0
      },
      "slices": {}
    },
    "modality": "bold",
    "run_id": 1,
    "session_id": "2",
    "subject_id": "047EPKL011012",
    "task_id": "read",
    "time": {
      "samples": {
        "AcquisitionNumber": [
          1,
          2,
          3,
          4,
          5,
          6,
          7,
          8,
          9,
          10,
          11,
          12,
          13,
          14,
          15,
          16,
          17,
          18,
          19,
          20,
          21,
          22,
          23,
          24,
          25,
          26,
          27,
          28,
          29,
          30,
          31,
          32,
          33,
          34,
          35,
          36,
          37,
          38,
          39,
          40,
          41,
          42,
          43,
          44,
          45,
          46,
          47,
          48,
          49,
          50,
          51,
          52,
          53,
          54,
          55,
          56,
          57,
          58,
          59,
          60,
          61,
          62,
          63,
          64,
          65,
          66,
          67,
          68,
          69,
          70,
          71,
          72,
          73,
          74,
          75,
          76,
          77,
          78,
          79,
          80,
          81,
          82,
          83,
          84,
          85,
          86,
          87,
          88,
          89,
          90,
          91,
          92,
          93,
          94,
          95,
          96,
          97,
          98,
          99,
          100,
          101,
          102,
          103,
          104,
          105,
          106,
          107,
          108,
          109,
          110,
          111,
          112,
          113,
          114,
          115,
          116,
          117,
          118,
          119,
          120,
          121,
          122,
          123,
          124,
          125,
          126,
          127
        ],
        "AcquisitionTime": [
          "113308.435000",
          "113310.775000",
          "113313.115000",
          "113315.455000",
          "113317.795000",
          "113320.135000",
          "113322.475000",
          "113324.815000",
          "113327.155000",
          "113329.495000",
          "113331.835000",
          "113334.175000",
          "113336.515000",
          "113338.855000",
          "113341.195000",
          "113343.535000",
          "113345.875000",
          "113348.215000",
          "113350.555000",
          "113352.895000",
          "113355.235000",
          "113357.575000",
          "113359.915000",
          "113402.255000",
          "113404.595000",
          "113406.935000",
          "113409.275000",
          "113411.615000",
          "113413.955000",
          "113416.295000",
          "113418.635000",
          "113420.975000",
          "113423.315000",
          "113425.655000",
          "113427.995000",
          "113430.335000",
          "113432.675000",
          "113435.015000",
          "113437.355000",
          "113439.695000",
          "113442.035000",
          "113444.375000",
          "113446.715000",
          "113449.055000",
          "113451.395000",
          "113453.735000",
          "113456.075000",
          "113458.415000",
          "113500.755000",
          "113503.095000",
          "113505.435000",
          "113507.775000",
          "113510.115000",
          "113512.455000",
          "113514.795000",
          "113517.135000",
          "113519.475000",
          "113521.815000",
          "113524.155000",
          "113526.495000",
          "113528.835000",
          "113531.175000",
          "113533.515000",
          "113535.855000",
          "113538.195000",
          "113540.535000",
          "113542.875000",
          "113545.215000",
          "113547.555000",
          "113549.895000",
          "113552.235000",
          "113554.575000",
          "113556.915000",
          "113559.255000",
          "113601.595000",
          "113603.935000",
          "113606.275000",
          "113608.615000",
          "113610.955000",
          "113613.295000",
          "113615.635000",
          "113617.975000",
          "113620.315000",
          "113622.655000",
          "113624.995000",
          "113627.335000",
          "113629.675000",
          "113632.015000",
          "113634.355000",
          "113636.695000",
          "113639.035000",
          "113641.375000",
          "113643.715000",
          "113646.055000",
          "113648.395000",
          "113650.735000",
          "113653.075000",
          "113655.415000",
          "113657.755000",
          "113700.095000",
          "113702.435000",
          "113704.775000",
          "113707.115000",
          "113709.455000",
          "113711.795000",
          "113714.135000",
          "113716.475000",
          "113718.815000",
          "113721.155000",
          "113723.495000",
          "113725.835000",
          "113728.175000",
          "113730.515000",
          "113732.855000",
          "113735.195000",
          "113737.535000",
          "113739.875000",
          "113742.215000",
          "113744.555000",
          "113746.895000",
          "113749.235000",
          "113751.575000",
          "113753.915000",
          "113756.255000",
          "113758.595000",
          "113800.935000",
          "113803.275000"
        ],
        "ContentTime": [
          "113358.330000",
          "113358.334000",
          "113358.337000",
          "113358.345000",
          "113358.349000",
          "113358.357000",
          "113358.359000",
          "113358.362000",
          "113358.365000",
          "113358.367000",
          "113358.370000",
          "113358.373000",
          "113358.375000",
          "113358.378000",
          "113358.381000",
          "113358.383000",
          "113358.386000",
          "113358.388000",
          "113358.391000",
          "113358.394000",
          "113358.397000",
          "113438.324000",
          "113438.327000",
          "113438.330000",
          "113438.333000",
          "113438.336000",
          "113438.338000",
          "113438.341000",
          "113438.344000",
          "113438.346000",
          "113438.349000",
          "113438.351000",
          "113438.354000",
          "113438.357000",
          "113438.359000",
          "113438.362000",
          "113438.364000",
          "113438.367000",
          "113538.324000",
          "113538.328000",
          "113538.331000",
          "113538.333000",
          "113538.336000",
          "113538.338000",
          "113538.341000",
          "113538.344000",
          "113538.347000",
          "113538.349000",
          "113538.352000",
          "113538.355000",
          "113538.357000",
          "113538.360000",
          "113538.363000",
          "113538.366000",
          "113538.368000",
          "113538.371000",
          "113538.374000",
          "113538.377000",
          "113538.379000",
          "113538.382000",
          "113538.385000",
          "113538.387000",
          "113538.390000",
          "113538.393000",
          "113638.324000",
          "113638.327000",
          "113638.330000",
          "113638.332000",
          "113638.335000",
          "113638.337000",
          "113638.340000",
          "113638.343000",
          "113638.345000",
          "113638.348000",
          "113638.351000",
          "113638.354000",
          "113638.356000",
          "113638.359000",
          "113638.362000",
          "113638.364000",
          "113638.367000",
          "113638.370000",
          "113638.372000",
          "113638.375000",
          "113638.384000",
          "113638.387000",
          "113638.390000",
          "113638.392000",
          "113638.395000",
          "113638.398000",
          "113738.325000",
          "113738.328000",
          "113738.330000",
          "113738.333000",
          "113738.336000",
          "113738.339000",
          "113738.341000",
          "113738.344000",
          "113738.346000",
          "113738.349000",
          "113738.352000",
          "113738.355000",
          "113738.357000",
          "113738.360000",
          "113738.363000",
          "113738.365000",
          "113738.368000",
          "113738.371000",
          "113738.374000",
          "113738.376000",
          "113738.379000",
          "113738.382000",
          "113738.384000",
          "113738.387000",
          "113738.389000",
          "113806.099000",
          "113806.180000",
          "113806.183000",
          "113806.185000",
          "113806.188000",
          "113806.199000",
          "113806.201000",
          "113806.204000",
          "113806.207000",
          "113806.210000",
          "113806.213000",
          "113806.217000"
        ],
        "InstanceCreationTime": [
          "113358.330000",
          "113358.334000",
          "113358.337000",
          "113358.345000",
          "113358.349000",
          "113358.357000",
          "113358.359000",
          "113358.362000",
          "113358.365000",
          "113358.367000",
          "113358.370000",
          "113358.373000",
          "113358.375000",
          "113358.378000",
          "113358.381000",
          "113358.383000",
          "113358.386000",
          "113358.388000",
          "113358.391000",
          "113358.394000",
          "113358.397000",
          "113438.324000",
          "113438.327000",
          "113438.330000",
          "113438.333000",
          "113438.336000",
          "113438.338000",
          "113438.341000",
          "113438.344000",
          "113438.346000",
          "113438.349000",
          "113438.351000",
          "113438.354000",
          "113438.357000",
          "113438.359000",
          "113438.362000",
          "113438.364000",
          "113438.367000",
          "113538.324000",
          "113538.328000",
          "113538.331000",
          "113538.333000",
          "113538.336000",
          "113538.338000",
          "113538.341000",
          "113538.344000",
          "113538.347000",
          "113538.349000",
          "113538.352000",
          "113538.355000",
          "113538.357000",
          "113538.360000",
          "113538.363000",
          "113538.366000",
          "113538.368000",
          "113538.371000",
          "113538.374000",
          "113538.377000",
          "113538.379000",
          "113538.382000",
          "113538.385000",
          "113538.387000",
          "113538.390000",
          "113538.393000",
          "113638.324000",
          "113638.327000",
          "113638.330000",
          "113638.332000",
          "113638.335000",
          "113638.337000",
          "113638.340000",
          "113638.343000",
          "113638.345000",
          "113638.348000",
          "113638.351000",
          "113638.354000",
          "113638.356000",
          "113638.359000",
          "113638.362000",
          "113638.364000",
          "113638.367000",
          "113638.370000",
          "113638.372000",
          "113638.375000",
          "113638.384000",
          "113638.387000",
          "113638.390000",
          "113638.392000",
          "113638.395000",
          "113638.398000",
          "113738.325000",
          "113738.328000",
          "113738.330000",
          "113738.333000",
          "113738.336000",
          "113738.339000",
          "113738.341000",
          "113738.344000",
          "113738.346000",
          "113738.349000",
          "113738.352000",
          "113738.355000",
          "113738.357000",
          "113738.360000",
          "113738.363000",
          "113738.365000",
          "113738.368000",
          "113738.371000",
          "113738.374000",
          "113738.376000",
          "113738.379000",
          "113738.382000",
          "113738.384000",
          "113738.387000",
          "113738.389000",
          "113806.099000",
          "113806.180000",
          "113806.183000",
          "113806.185000",
          "113806.188000",
          "113806.199000",
          "113806.201000",
          "113806.204000",
          "113806.207000",
          "113806.210000",
          "113806.213000",
          "113806.217000"
        ],
        "InstanceNumber": [
          1,
          2,
          3,
          4,
          5,
          6,
          7,
          8,
          9,
          10,
          11,
          12,
          13,
          14,
          15,
          16,
          17,
          18,
          19,
          20,
          21,
          22,
          23,
          24,
          25,
          26,
          27,
          28,
          29,
          30,
          31,
          32,
          33,
          34,
          35,
          36,
          37,
          38,
          39,
          40,
          41,
          42,
          43,
          44,
          45,
          46,
          47,
          48,
          49,
          50,
          51,
          52,
          53,
          54,
          55,
          56,
          57,
          58,
          59,
          60,
          61,
          62,
          63,
          64,
          65,
          66,
          67,
          68,
          69,
          70,
          71,
          72,
          73,
          74,
          75,
          76,
          77,
          78,
          79,
          80,
          81,
          82,
          83,
          84,
          85,
          86,
          87,
          88,
          89,
          90,
          91,
          92,
          93,
          94,
          95,
          96,
          97,
          98,
          99,
          100,
          101,
          102,
          103,
          104,
          105,
          106,
          107,
          108,
          109,
          110,
          111,
          112,
          113,
          114,
          115,
          116,
          117,
          118,
          119,
          120,
          121,
          122,
          123,
          124,
          125,
          126,
          127
        ],
        "LargestImagePixelValue": [
          2452,
          1805,
          2403,
          2188,
          2409,
          2092,
          2312,
          2067,
          2212,
          1890,
          1930,
          2293,
          1827,
          2105,
          2136,
          1811,
          2212,
          2265,
          2029,
          2629,
          2262,
          1815,
          1946,
          2056,
          2054,
          2040,
          2064,
          2031,
          1839,
          2001,
          2043,
          2056,
          1885,
          2364,
          1887,
          1882,
          1983,
          1891,
          1996,
          2118,
          2125,
          1917,
          1691,
          2086,
          2312,
          2433,
          2550,
          2108,
          2017,
          2062,
          1876,
          2084,
          2230,
          1777,
          1763,
          2211,
          2426,
          2073,
          1868,
          1870,
          1835,
          2216,
          2354,
          2074,
          2026,
          1952,
          1789,
          2176,
          2238,
          2136,
          2226,
          2279,
          2187,
          2012,
          2096,
          2258,
          1754,
          2072,
          2308,
          2397,
          2204,
          1718,
          2030,
          2502,
          2100,
          2022,
          2106,
          2207,
          2027,
          1824,
          2037,
          1895,
          2101,
          2056,
          2272,
          1936,
          2040,
          2095,
          2031,
          2013,
          1961,
          1776,
          2611,
          2306,
          1716,
          2146,
          2050,
          1947,
          2102,
          2223,
          2178,
          2217,
          1996,
          1815,
          2048,
          2070,
          1984,
          2111,
          2326,
          2158,
          1764,
          2249,
          2255,
          1939,
          2243,
          2410,
          2376
        ],
        "WindowCenter": [
          762.0,
          760.0,
          761.0,
          760.0,
          761.0,
          758.0,
          758.0,
          757.0,
          758.0,
          757.0,
          759.0,
          759.0,
          758.0,
          761.0,
          760.0,
          760.0,
          761.0,
          762.0,
          760.0,
          762.0,
          760.0,
          758.0,
          758.0,
          757.0,
          758.0,
          758.0,
          758.0,
          757.0,
          757.0,
          759.0,
          759.0,
          758.0,
          758.0,
          759.0,
          758.0,
          761.0,
          760.0,
          759.0,
          759.0,
          758.0,
          758.0,
          762.0,
          758.0,
          760.0,
          761.0,
          759.0,
          758.0,
          759.0,
          759.0,
          760.0,
          757.0,
          759.0,
          759.0,
          759.0,
          759.0,
          761.0,
          760.0,
          760.0,
          758.0,
          760.0,
          760.0,
          761.0,
          761.0,
          760.0,
          760.0,
          761.0,
          760.0,
          761.0,
          760.0,
          760.0,
          759.0,
          761.0,
          761.0,
          764.0,
          762.0,
          761.0,
          762.0,
          764.0,
          763.0,
          762.0,
          762.0,
          761.0,
          763.0,
          763.0,
          760.0,
          760.0,
          762.0,
          762.0,
          760.0,
          760.0,
          762.0,
          763.0,
          761.0,
          761.0,
          761.0,
          760.0,
          762.0,
          761.0,
          762.0,
          761.0,
          761.0,
          764.0,
          764.0,
          759.0,
          757.0,
          760.0,
          762.0,
          762.0,
          762.0,
          763.0,
          763.0,
          763.0,
          763.0,
          764.0,
          763.0,
          764.0,
          763.0,
          763.0,
          762.0,
          762.0,
          763.0,
          765.0,
          763.0,
          762.0,
          763.0,
          763.0,
          761.0
        ],
        "WindowWidth": [
          1617.0,
          1613.0,
          1616.0,
          1611.0,
          1615.0,
          1608.0,
          1608.0,
          1605.0,
          1608.0,
          1605.0,
          1609.0,
          1611.0,
          1608.0,
          1614.0,
          1612.0,
          1612.0,
          1616.0,
          1618.0,
          1611.0,
          1618.0,
          1613.0,
          1607.0,
          1607.0,
          1605.0,
          1608.0,
          1608.0,
          1606.0,
          1605.0,
          1603.0,
          1611.0,
          1609.0,
          1608.0,
          1607.0,
          1609.0,
          1607.0,
          1614.0,
          1612.0,
          1610.0,
          1610.0,
          1608.0,
          1607.0,
          1617.0,
          1607.0,
          1613.0,
          1615.0,
          1609.0,
          1608.0,
          1611.0,
          1609.0,
          1612.0,
          1603.0,
          1610.0,
          1609.0,
          1611.0,
          1612.0,
          1615.0,
          1614.0,
          1612.0,
          1608.0,
          1614.0,
          1613.0,
          1617.0,
          1617.0,
          1612.0,
          1613.0,
          1615.0,
          1613.0,
          1616.0,
          1614.0,
          1612.0,
          1613.0,
          1615.0,
          1615.0,
          1623.0,
          1618.0,
          1616.0,
          1617.0,
          1623.0,
          1622.0,
          1617.0,
          1620.0,
          1615.0,
          1621.0,
          1622.0,
          1613.0,
          1613.0,
          1619.0,
          1618.0,
          1615.0,
          1613.0,
          1620.0,
          1620.0,
          1617.0,
          1617.0,
          1616.0,
          1614.0,
          1619.0,
          1618.0,
          1619.0,
          1617.0,
          1616.0,
          1624.0,
          1625.0,
          1611.0,
          1606.0,
          1613.0,
          1617.0,
          1621.0,
          1619.0,
          1620.0,
          1621.0,
          1623.0,
          1621.0,
          1623.0,
          1622.0,
          1625.0,
          1623.0,
          1622.0,
          1621.0,
          1619.0,
          1623.0,
          1626.0,
          1622.0,
          1618.0,
          1622.0,
          1621.0,
          1618.0
        ]
      },
      "slices": {}
    }
  },
  "dummy_trs": 0,
  "dvars_nstd": 31.056269706031745,
  "dvars_std": 1.2076902061904764,
  "dvars_vstd": 0.9823967354761907,
  "efc": 0.5551582827358862,
  "fber": 1461.4984130859375,
  "fd_mean": 0.40436574411429144,
  "fd_num": 110,
  "fd_perc": 86.61417322834646,
  "fwhm_avg": 1.561345224443384,
  "fwhm_x": 1.4867566666666667,
  "fwhm_y": 1.7397033333333332,
  "fwhm_z": 1.4575756733301524,
  "gcor": 0.0531905,
  "gsr_x": -0.007076778449118137,
  "gsr_y": 0.035463012754917145,
  "provenance": {
    "md5sum": "e7764145d49046c97b34020366f711d4",
    "settings": {
      "fd_thres": 0.2,
      "testing": false
    },
    "software": "mriqc",
    "version": "22.0.1",
    "webapi_port": null,
    "webapi_url": "https://mriqc.nimh.nih.gov/api/v1"
  },
  "size_t": 127,
  "size_x": 64,
  "size_y": 64,
  "size_z": 34,
  "snr": 7.705567389027677,
  "spacing_tr": 2.3399999141693115,
  "spacing_x": 3.0,
  "spacing_y": 3.0,
  "spacing_z": 3.3000001907348633,
  "summary_bg_k": 47.70896913135797,
  "summary_bg_mad": 9.654427229160934,
  "summary_bg_mean": 36.892391204833984,
  "summary_bg_median": 22.622047424316406,
  "summary_bg_n": 76041.0,
  "summary_bg_p05": 11.61417293548584,
  "summary_bg_p95": 94.6220474243164,
  "summary_bg_stdv": 57.65846252441406,
  "summary_fg_k": 2.553359238145477,
  "summary_fg_mad": 115.29277342273281,
  "summary_fg_mean": 884.6093139648438,
  "summary_fg_median": 884.2755737304688,
  "summary_fg_n": 31105.0,
  "summary_fg_p05": 716.4676879882812,
  "summary_fg_p95": 1056.3275390625,
  "summary_fg_stdv": 114.75616455078125,
  "tsnr": 53.75192904076539
}