{
  "aor": 0.012413360000000002,
  "aqi": 0.017527492239999998,
  "bids_meta": {
    "AcquisitionMatrixPE": 64,
    "AcquisitionNumber": 1,
    "AcquisitionTime": "11:41:38.412500",
    "BandwidthPerPixelPhaseEncode": 24.038,
    "BaseResolution": 64,
    "BodyPartExamined": "HEAD",
    "ConsistencyInfo": "N4_VD13A_LATEST_20120616",
    "ConversionSoftware": "dcm2niix",
    "ConversionSoftwareVersion": "v1.0.20181125  GCC6.3.0",
    "DerivedVendorReportedEchoSpacing": 0.000650012,
    "DeviceSerialNumber": "45250",
    "DwellTime": 4.6e-06,
    "EchoTime": 0.033,
    "EchoTrainLength": 64,
    "EffectiveEchoSpacing": 0.000650012,
    "FlipAngle": 90,
    "ImageOrientationPatientDICOM": [
      0.99912,
      -0.0412422,
      -0.00765573,
      0.0401288,
      0.992913,
      -0.111868
    ],
    "ImageType": [
      "ORIGINAL",
      "PRIMARY",
      "M",
      "ND",
      "NORM",
      "MOSAIC"
    ],
    "ImagingFrequency": 123.214,
    "InPlanePhaseEncodingDirectionDICOM": "COL",
    "InstitutionAddress": "Kopernikusstr._26_Graz_Graz_AT_8010",
    "InstitutionName": "KFU",
    "InstitutionalDepartmentName": "Department",
    "MRAcquisitionType": "2D",
    "MagneticFieldStrength": 3,
    "Manufacturer": "Siemens",
    "ManufacturersModelName": "Skyra",
    "Modality": "MR",
    "PartialFourier": 1,
    "PatientPosition": "HFS",
    "PercentPhaseFOV": 100,
    "PhaseEncodingDirection": "j-",
    "PhaseEncodingSteps": 64,
    "PhaseResolution": 1,
    "PixelBandwidth": 1700,
    "ProcedureStepDescription": "KFU_Entw-Psy",
    "ProtocolName": "fMRI_3",
    "PulseSequenceDetails": "%SiemensSeq%_ep2d_pace",
    "ReceiveCoilActiveElements": "HE1-4",
    "ReceiveCoilName": "HeadNeck_20",
    "ReconMatrixPE": 64,
    "RepetitionTime": 2.34,
    "SAR": 0.165787,
    "ScanOptions": "FS",
    "ScanningSequence": "EP",
    "SequenceName": "_epfid2d1_64",
    "SequenceVariant": "SK",
    "SeriesDescription": "fMRI_3",
    "SeriesNumber": 8,
    "ShimSetting": [
      -1553,
      -3709,
      -4281,
      480,
      394,
      192,
      267,
      -314
    ],
    "SliceThickness": 3,
    "SliceTiming": [
      2.2525,
      2.185,
      2.115,
      2.0475,
      1.98,
      1.9125,
      1.8425,
      1.775,
      1.7075,
      1.6375,
      1.57,
      1.5025,
      1.435,
      1.365,
      1.2975,
      1.23,
      1.16,
      1.0925,
      1.025,
      0.955,
      0.8875,
      0.82,
      0.7525,
      0.6825,
      0.615,
      0.5475,
      0.4775,
      0.41,
      0.3425,
      0.275,
      0.205,
      0.1375,
      0.07,
      0
    ],
    "SoftwareVersions": "syngo_MR_D13",
    "SpacingBetweenSlices": 3.3,
    "StationName": "FBMTMR1",
    "TaskName": "read",
    "TotalReadoutTime": 0.0409508,
    "TxRefAmp": 382.522,
    "dataset": "ds003126",
    "dcmmeta_affine": [
      [
        -2.99735951423645,
        0.12038635462522507,
        -0.040309954434633255,
        92.3601303100586
      ],
      [
        0.12372658401727676,
        2.9787375926971436,
        -0.3678242862224579,
        -112.05154418945312
      ],
      [
        -0.022967197000980377,
        0.3356027603149414,
        3.279188871383667,
        -14.25814437866211
      ],
      [
        0.0,
        0.0,
        0.0,
        1.0
      ]
    ],
    "dcmmeta_reorient_transform": [
      [
        0.0,
        -1.0,
        0.0,
        63.0
      ],
      [
        1.0,
        0.0,
        0.0,
        0.0
      ],
      [
        0.0,
        0.0,
        1.0,
        0.0
      ],
      [
        0.0,
        0.0,
        0.0,
        1.0
      ]
    ],
    "dcmmeta_shape": [
      64,
      64,
      34,
      125
    ],
    "dcmmeta_slice_dim": 2,
    "dcmmeta_version": 0.6,
    "global": {
      "const": {
        "AcquisitionMatrix": [
          64,
          0,
          0,
          64
        ],
        "AngioFlag": "N",
        "BitsAllocated": 16,
        "BitsStored": 12,
        "BodyPartExamined": "HEAD",
        "Columns": 384,
        "EchoNumbers": 1,
        "EchoTime": 33.0,
        "EchoTrainLength": 64,
        "FlipAngle": 90.0,
        "HighBit": 11,
        "ImageOrientationPatient": [
          0.99911984820939,
          -0.0412421953166,
          -0.007655732461,
          0.04012878427734,
          0.99291254606033,
          -0.1118675848869
        ],
        "ImagePositionPatient": [
          -598.78381162121,
          -532.41069247057,
          64.256021917882
        ],
        "ImageType": [
          "ORIGINAL",
          "PRIMARY",
          "M",
          "ND",
          "NORM",
          "MOSAIC"
        ],
        "ImagedNucleus": "1H",
        "ImagingFrequency": 123.214304,
        "InPlanePhaseEncodingDirection": "COL",
        "MRAcquisitionType": "2D",
        "MagneticFieldStrength": 3.0,
        "Manufacturer": "SIEMENS",
        "ManufacturerModelName": "Skyra",
        "Modality": "MR",
        "NumberOfAverages": 1.0,
        "NumberOfPhaseEncodingSteps": 64,
        "PercentPhaseFieldOfView": 100.0,
        "PercentSampling": 100.0,
        "PerformedProcedureStepStartTime": "112552.652000",
        "PhotometricInterpretation": "MONOCHROME2",
        "PixelBandwidth": 1700.0,
        "PixelRepresentation": 0,
        "PixelSpacing": [
          3.0,
          3.0
        ],
        "ProtocolName": "fMRI_3",
        "RepetitionTime": 2340.0,
        "Rows": 384,
        "SAR": 0.16578693292914,
        "SamplesPerPixel": 1,
        "ScanOptions": "FS",
        "ScanningSequence": "EP",
        "SequenceName": "*epfid2d1_64",
        "SequenceVariant": "SK",
        "SeriesDescription": "fMRI_3",
        "SeriesNumber": 8,
        "SeriesTime": "114241.670000",
        "SliceLocation": -2.8069391445756,
        "SliceThickness": 3.0,
        "SmallestImagePixelValue": 0,
        "SoftwareVersions": "syngo MR D13",
        "SpacingBetweenSlices": 3.2999999235812,
        "SpecificCharacterSet": "ISO_IR 100",
        "StudyID": "1",
        "StudyTime": "112552.603000",
        "TransmitCoilName": "Body",
        "VariableFlipAngleFlag": "N",
        "WindowCenterWidthExplanation": "Algo1",
        "dBdt": 0.0
      },
      "slices": {}
    },
    "modality": "bold",
    "run_id": 3,
    "session_id": "2",
    "subject_id": "047EPKL014040",
    "task_id": "read",
    "time": {
      "samples": {
        "AcquisitionNumber": [
          1,
          2,
          3,
          4,
          5,
          6,
          7,
          8,
          9,
          10,
          11,
          12,
          13,
          14,
          15,
          16,
          17,
          18,
          19,
          20,
          21,
          22,
          23,
          24,
          25,
          26,
          27,
          28,
          29,
          30,
          31,
          32,
          33,
          34,
          35,
          36,
          37,
          38,
          39,
          40,
          41,
          42,
          43,
          44,
          45,
          46,
          47,
          48,
          49,
          50,
          51,
          52,
          53,
          54,
          55,
          56,
          57,
          58,
          59,
          60,
          61,
          62,
          63,
          64,
          65,
          66,
          67,
          68,
          69,
          70,
          71,
          72,
          73,
          74,
          75,
          76,
          77,
          78,
          79,
          80,
          81,
          82,
          83,
          84,
          85,
          86,
          87,
          88,
          89,
          90,
          91,
          92,
          93,
          94,
          95,
          96,
          97,
          98,
          99,
          100,
          101,
          102,
          103,
          104,
          105,
          106,
          107,
          108,
          109,
          110,
          111,
          112,
          113,
          114,
          115,
          116,
          117,
          118,
          119,
          120,
          121,
          122,
          123,
          124,
          125
        ],
        "AcquisitionTime": [
          "114138.412500",
          "114140.752500",
          "114143.092500",
          "114145.432500",
          "114147.772500",
          "114150.112500",
          "114152.452500",
          "114154.792500",
          "114157.132500",
          "114159.472500",
          "114201.812500",
          "114204.152500",
          "114206.492500",
          "114208.832500",
          "114211.172500",
          "114213.512500",
          "114215.852500",
          "114218.192500",
          "114220.532500",
          "114222.872500",
          "114225.212500",
          "114227.552500",
          "114229.892500",
          "114232.232500",
          "114234.572500",
          "114236.912500",
          "114239.252500",
          "114241.592500",
          "114243.932500",
          "114246.272500",
          "114248.612500",
          "114250.952500",
          "114253.292500",
          "114255.632500",
          "114257.972500",
          "114300.312500",
          "114302.652500",
          "114304.992500",
          "114307.332500",
          "114309.672500",
          "114312.012500",
          "114314.352500",
          "114316.692500",
          "114319.032500",
          "114321.372500",
          "114323.712500",
          "114326.052500",
          "114328.392500",
          "114330.732500",
          "114333.072500",
          "114335.412500",
          "114337.752500",
          "114340.092500",
          "114342.432500",
          "114344.772500",
          "114347.112500",
          "114349.452500",
          "114351.792500",
          "114354.132500",
          "114356.472500",
          "114358.812500",
          "114401.152500",
          "114403.492500",
          "114405.832500",
          "114408.172500",
          "114410.512500",
          "114412.852500",
          "114415.192500",
          "114417.532500",
          "114419.872500",
          "114422.212500",
          "114424.552500",
          "114426.892500",
          "114429.232500",
          "114431.572500",
          "114433.912500",
          "114436.252500",
          "114438.592500",
          "114440.932500",
          "114443.272500",
          "114445.612500",
          "114447.952500",
          "114450.292500",
          "114452.632500",
          "114454.972500",
          "114457.312500",
          "114459.652500",
          "114501.992500",
          "114504.332500",
          "114506.672500",
          "114509.012500",
          "114511.352500",
          "114513.692500",
          "114516.032500",
          "114518.372500",
          "114520.712500",
          "114523.052500",
          "114525.392500",
          "114527.732500",
          "114530.072500",
          "114532.412500",
          "114534.752500",
          "114537.092500",
          "114539.432500",
          "114541.772500",
          "114544.112500",
          "114546.452500",
          "114548.792500",
          "114551.132500",
          "114553.472500",
          "114555.812500",
          "114558.152500",
          "114600.492500",
          "114602.832500",
          "114605.172500",
          "114607.512500",
          "114609.852500",
          "114612.192500",
          "114614.532500",
          "114616.872500",
          "114619.212500",
          "114621.552500",
          "114623.892500",
          "114626.232500",
          "114628.572500"
        ],
        "ContentTime": [
          "114241.674000",
          "114241.678000",
          "114241.681000",
          "114241.684000",
          "114241.686000",
          "114241.689000",
          "114241.691000",
          "114241.694000",
          "114241.697000",
          "114241.699000",
          "114241.702000",
          "114241.704000",
          "114241.707000",
          "114241.709000",
          "114241.712000",
          "114241.714000",
          "114241.717000",
          "114241.720000",
          "114241.722000",
          "114241.725000",
          "114241.728000",
          "114241.730000",
          "114241.733000",
          "114241.735000",
          "114241.738000",
          "114241.741000",
          "114241.743000",
          "114321.669000",
          "114321.672000",
          "114321.674000",
          "114321.677000",
          "114321.680000",
          "114321.683000",
          "114321.686000",
          "114321.689000",
          "114321.692000",
          "114321.694000",
          "114321.697000",
          "114321.700000",
          "114321.703000",
          "114321.706000",
          "114321.709000",
          "114321.712000",
          "114321.715000",
          "114421.668000",
          "114421.671000",
          "114421.674000",
          "114421.676000",
          "114421.679000",
          "114421.682000",
          "114421.684000",
          "114421.687000",
          "114421.690000",
          "114421.692000",
          "114421.695000",
          "114421.698000",
          "114421.700000",
          "114421.703000",
          "114421.705000",
          "114421.708000",
          "114421.710000",
          "114421.713000",
          "114421.715000",
          "114421.718000",
          "114421.721000",
          "114421.724000",
          "114421.727000",
          "114421.730000",
          "114421.733000",
          "114421.736000",
          "114521.669000",
          "114521.672000",
          "114521.675000",
          "114521.677000",
          "114521.680000",
          "114521.683000",
          "114521.685000",
          "114521.688000",
          "114521.690000",
          "114521.693000",
          "114521.696000",
          "114521.698000",
          "114521.701000",
          "114521.704000",
          "114521.707000",
          "114521.710000",
          "114521.713000",
          "114521.716000",
          "114521.718000",
          "114521.721000",
          "114521.724000",
          "114521.728000",
          "114521.735000",
          "114521.738000",
          "114521.741000",
          "114521.743000",
          "114621.668000",
          "114621.671000",
          "114621.674000",
          "114621.677000",
          "114621.680000",
          "114621.682000",
          "114621.685000",
          "114621.688000",
          "114621.691000",
          "114621.694000",
          "114621.697000",
          "114621.700000",
          "114621.703000",
          "114621.706000",
          "114621.709000",
          "114621.712000",
          "114621.715000",
          "114621.718000",
          "114621.721000",
          "114621.724000",
          "114621.727000",
          "114621.730000",
          "114621.733000",
          "114621.736000",
          "114621.739000",
          "114629.890000",
          "114629.894000",
          "114629.897000",
          "114629.902000"
        ],
        "InstanceCreationTime": [
          "114241.674000",
          "114241.678000",
          "114241.681000",
          "114241.684000",
          "114241.686000",
          "114241.689000",
          "114241.691000",
          "114241.694000",
          "114241.697000",
          "114241.699000",
          "114241.702000",
          "114241.704000",
          "114241.707000",
          "114241.709000",
          "114241.712000",
          "114241.714000",
          "114241.717000",
          "114241.720000",
          "114241.722000",
          "114241.725000",
          "114241.728000",
          "114241.730000",
          "114241.733000",
          "114241.735000",
          "114241.738000",
          "114241.741000",
          "114241.743000",
          "114321.669000",
          "114321.672000",
          "114321.674000",
          "114321.677000",
          "114321.680000",
          "114321.683000",
          "114321.686000",
          "114321.689000",
          "114321.692000",
          "114321.694000",
          "114321.697000",
          "114321.700000",
          "114321.703000",
          "114321.706000",
          "114321.709000",
          "114321.712000",
          "114321.715000",
          "114421.668000",
          "114421.671000",
          "114421.674000",
          "114421.676000",
          "114421.679000",
          "114421.682000",
          "114421.684000",
          "114421.687000",
          "114421.690000",
          "114421.692000",
          "114421.695000",
          "114421.698000",
          "114421.700000",
          "114421.703000",
          "114421.705000",
          "114421.708000",
          "114421.710000",
          "114421.713000",
          "114421.715000",
          "114421.718000",
          "114421.721000",
          "114421.724000",
          "114421.727000",
          "114421.730000",
          "114421.733000",
          "114421.736000",
          "114521.669000",
          "114521.672000",
          "114521.675000",
          "114521.677000",
          "114521.680000",
          "114521.683000",
          "114521.685000",
          "114521.688000",
          "114521.690000",
          "114521.693000",
          "114521.696000",
          "114521.698000",
          "114521.701000",
          "114521.704000",
          "114521.707000",
          "114521.710000",
          "114521.713000",
          "114521.716000",
          "114521.718000",
          "114521.721000",
          "114521.724000",
          "114521.728000",
          "114521.735000",
          "114521.738000",
          "114521.741000",
          "114521.743000",
          "114621.668000",
          "114621.671000",
          "114621.674000",
          "114621.677000",
          "114621.680000",
          "114621.682000",
          "114621.685000",
          "114621.688000",
          "114621.691000",
          "114621.694000",
          "114621.697000",
          "114621.700000",
          "114621.703000",
          "114621.706000",
          "114621.709000",
          "114621.712000",
          "114621.715000",
          "114621.718000",
          "114621.721000",
          "114621.724000",
          "114621.727000",
          "114621.730000",
          "114621.733000",
          "114621.736000",
          "114621.739000",
          "114629.890000",
          "114629.894000",
          "114629.897000",
          "114629.902000"
        ],
        "InstanceNumber": [
          1,
          2,
          3,
          4,
          5,
          6,
          7,
          8,
          9,
          10,
          11,
          12,
          13,
          14,
          15,
          16,
          17,
          18,
          19,
          20,
          21,
          22,
          23,
          24,
          25,
          26,
          27,
          28,
          29,
          30,
          31,
          32,
          33,
          34,
          35,
          36,
          37,
          38,
          39,
          40,
          41,
          42,
          43,
          44,
          45,
          46,
          47,
          48,
          49,
          50,
          51,
          52,
          53,
          54,
          55,
          56,
          57,
          58,
          59,
          60,
          61,
          62,
          63,
          64,
          65,
          66,
          67,
          68,
          69,
          70,
          71,
          72,
          73,
          74,
          75,
          76,
          77,
          78,
          79,
          80,
          81,
          82,
          83,
          84,
          85,
          86,
          87,
          88,
          89,
          90,
          91,
          92,
          93,
          94,
          95,
          96,
          97,
          98,
          99,
          100,
          101,
          102,
          103,
          104,
          105,
          106,
          107,
          108,
          109,
          110,
          111,
          112,
          113,
          114,
          115,
          116,
          117,
          118,
          119,
          120,
          121,
          122,
          123,
          124,
          125
        ],
        "LargestImagePixelValue": [
          1942,
          1854,
          1885,
          1828,
          1855,
          1893,
          1944,
          1855,
          1861,
          1850,
          1862,
          1962,
          1867,
          1811,
          1814,
          1919,
          1894,
          1932,
          1861,
          1924,
          1910,
          1886,
          1849,
          1814,
          2037,
          1879,
          1886,
          1898,
          1838,
          1883,
          2059,
          1883,
          1874,
          1838,
          1820,
          1847,
          2124,
          2155,
          1902,
          1877,
          1819,
          1867,
          1854,
          1870,
          1882,
          1911,
          1893,
          1836,
          1865,
          2101,
          1903,
          1890,
          2147,
          1933,
          1913,
          1871,
          1893,
          1890,
          1878,
          1879,
          1880,
          1926,
          1897,
          2234,
          1945,
          2013,
          1957,
          1980,
          1862,
          1863,
          1871,
          1828,
          2139,
          1812,
          2039,
          1928,
          1847,
          1926,
          1913,
          1898,
          1858,
          1964,
          1938,
          1943,
          1803,
          1891,
          1864,
          1942,
          1847,
          1798,
          1845,
          1847,
          1942,
          2118,
          2056,
          1909,
          1823,
          1829,
          1831,
          1907,
          1892,
          1900,
          1872,
          1866,
          1813,
          1889,
          1831,
          1813,
          2006,
          1940,
          1926,
          1916,
          1906,
          1957,
          1868,
          1858,
          1839,
          2031,
          1886,
          1829,
          1904,
          1932,
          1966,
          1898,
          1873
        ],
        "WindowCenter": [
          817.0,
          815.0,
          814.0,
          816.0,
          816.0,
          814.0,
          816.0,
          814.0,
          814.0,
          814.0,
          814.0,
          813.0,
          814.0,
          816.0,
          814.0,
          815.0,
          815.0,
          815.0,
          815.0,
          815.0,
          815.0,
          813.0,
          812.0,
          815.0,
          816.0,
          817.0,
          815.0,
          816.0,
          817.0,
          816.0,
          816.0,
          816.0,
          816.0,
          818.0,
          816.0,
          819.0,
          817.0,
          814.0,
          811.0,
          817.0,
          815.0,
          816.0,
          814.0,
          817.0,
          815.0,
          815.0,
          815.0,
          817.0,
          816.0,
          817.0,
          816.0,
          817.0,
          815.0,
          817.0,
          816.0,
          817.0,
          816.0,
          818.0,
          818.0,
          819.0,
          817.0,
          818.0,
          822.0,
          819.0,
          818.0,
          815.0,
          813.0,
          819.0,
          815.0,
          815.0,
          816.0,
          816.0,
          819.0,
          818.0,
          818.0,
          818.0,
          815.0,
          817.0,
          814.0,
          820.0,
          818.0,
          816.0,
          814.0,
          817.0,
          817.0,
          818.0,
          817.0,
          818.0,
          818.0,
          817.0,
          816.0,
          818.0,
          818.0,
          817.0,
          816.0,
          816.0,
          817.0,
          819.0,
          817.0,
          821.0,
          819.0,
          817.0,
          816.0,
          819.0,
          819.0,
          820.0,
          819.0,
          818.0,
          818.0,
          820.0,
          818.0,
          821.0,
          821.0,
          819.0,
          818.0,
          819.0,
          820.0,
          823.0,
          820.0,
          817.0,
          820.0,
          820.0,
          817.0,
          820.0,
          818.0
        ],
        "WindowWidth": [
          1725.0,
          1719.0,
          1717.0,
          1721.0,
          1725.0,
          1717.0,
          1722.0,
          1718.0,
          1716.0,
          1717.0,
          1717.0,
          1716.0,
          1718.0,
          1721.0,
          1717.0,
          1720.0,
          1719.0,
          1723.0,
          1720.0,
          1719.0,
          1720.0,
          1716.0,
          1712.0,
          1719.0,
          1724.0,
          1723.0,
          1719.0,
          1722.0,
          1727.0,
          1723.0,
          1724.0,
          1722.0,
          1722.0,
          1726.0,
          1724.0,
          1729.0,
          1726.0,
          1715.0,
          1708.0,
          1725.0,
          1718.0,
          1724.0,
          1719.0,
          1725.0,
          1719.0,
          1722.0,
          1720.0,
          1724.0,
          1723.0,
          1725.0,
          1724.0,
          1724.0,
          1720.0,
          1724.0,
          1722.0,
          1728.0,
          1724.0,
          1728.0,
          1728.0,
          1729.0,
          1725.0,
          1728.0,
          1738.0,
          1735.0,
          1731.0,
          1719.0,
          1713.0,
          1732.0,
          1720.0,
          1721.0,
          1724.0,
          1723.0,
          1729.0,
          1728.0,
          1729.0,
          1728.0,
          1721.0,
          1723.0,
          1717.0,
          1736.0,
          1727.0,
          1723.0,
          1719.0,
          1727.0,
          1725.0,
          1727.0,
          1724.0,
          1728.0,
          1731.0,
          1725.0,
          1722.0,
          1728.0,
          1729.0,
          1725.0,
          1724.0,
          1723.0,
          1726.0,
          1729.0,
          1725.0,
          1737.0,
          1732.0,
          1725.0,
          1723.0,
          1731.0,
          1730.0,
          1733.0,
          1729.0,
          1728.0,
          1729.0,
          1732.0,
          1727.0,
          1737.0,
          1736.0,
          1731.0,
          1728.0,
          1732.0,
          1733.0,
          1743.0,
          1733.0,
          1726.0,
          1734.0,
          1731.0,
          1725.0,
          1735.0,
          1729.0
        ]
      },
      "slices": {}
    }
  },
  "dummy_trs": 0,
  "dvars_nstd": 39.82260054951612,
  "dvars_std": 1.34724550782258,
  "dvars_vstd": 1.1196353592741934,
  "efc": 0.5864926122854681,
  "fber": 1436.6812744140625,
  "fd_mean": 0.668130833490032,
  "fd_num": 101,
  "fd_perc": 80.8,
  "fwhm_avg": 1.7773568765175654,
  "fwhm_x": 1.6888233333333333,
  "fwhm_y": 2.0174533333333335,
  "fwhm_z": 1.6257939628860296,
  "gcor": 0.038715,
  "gsr_x": -0.004534556996077299,
  "gsr_y": 0.04462873563170433,
  "provenance": {
    "md5sum": "395b572f1ec1d5f9c408a7afb65e57ed",
    "settings": {
      "fd_thres": 0.2,
      "testing": false
    },
    "software": "mriqc",
    "version": "22.0.1",
    "webapi_port": null,
    "webapi_url": "https://mriqc.nimh.nih.gov/api/v1"
  },
  "size_t": 125,
  "size_x": 64,
  "size_y": 64,
  "size_z": 34,
  "snr": 6.682490617937577,
  "spacing_tr": 2.3399999141693115,
  "spacing_x": 3.0,
  "spacing_y": 3.0,
  "spacing_z": 3.299999952316284,
  "summary_bg_k": 65.36214139771441,
  "summary_bg_mad": 9.180274927785565,
  "summary_bg_mean": 36.762271881103516,
  "summary_bg_median": 23.73600196838379,
  "summary_bg_n": 70051.0,
  "summary_bg_p05": 14.256000518798828,
  "summary_bg_p95": 89.3440055847168,
  "summary_bg_stdv": 51.2840690612793,
  "summary_fg_k": 2.7838493512375946,
  "summary_fg_mad": 129.44300987977368,
  "summary_fg_mean": 931.0298461914062,
  "summary_fg_median": 926.4200439453125,
  "summary_fg_n": 36550.0,
  "summary_fg_p05": 729.730825805664,
  "summary_fg_p95": 1139.5980712890623,
  "summary_fg_stdv": 138.63204956054688,
  "tsnr": 47.91658972995356
}