{
  "aor": 0.008229842519685041,
  "aqi": 0.016647404015748032,
  "bids_meta": {
    "AcquisitionMatrixPE": 64,
    "AcquisitionNumber": 1,
    "AcquisitionTime": "09:29:24.395000",
    "BandwidthPerPixelPhaseEncode": 24.038,
    "BaseResolution": 64,
    "BodyPartExamined": "HEAD",
    "ConsistencyInfo": "N4_VD13A_LATEST_20120616",
    "ConversionSoftware": "dcm2niix",
    "ConversionSoftwareVersion": "v1.0.20181125  GCC6.3.0",
    "DerivedVendorReportedEchoSpacing": 0.000650012,
    "DeviceSerialNumber": "45250",
    "DwellTime": 4.6e-06,
    "EchoTime": 0.033,
    "EchoTrainLength": 64,
    "EffectiveEchoSpacing": 0.000650012,
    "FlipAngle": 90,
    "ImageOrientationPatientDICOM": [
      0.999919,
      -0.00541881,
      -0.0114904,
      0.00349042,
      0.986843,
      -0.161646
    ],
    "ImageType": [
      "ORIGINAL",
      "PRIMARY",
      "M",
      "ND",
      "NORM",
      "MOSAIC"
    ],
    "ImagingFrequency": 123.214,
    "InPlanePhaseEncodingDirectionDICOM": "COL",
    "InstitutionAddress": "Kopernikusstr._26_Graz_Graz_AT_8010",
    "InstitutionName": "KFU",
    "InstitutionalDepartmentName": "Department",
    "MRAcquisitionType": "2D",
    "MagneticFieldStrength": 3,
    "Manufacturer": "Siemens",
    "ManufacturersModelName": "Skyra",
    "Modality": "MR",
    "PartialFourier": 1,
    "PatientPosition": "HFS",
    "PercentPhaseFOV": 100,
    "PhaseEncodingDirection": "j-",
    "PhaseEncodingSteps": 64,
    "PhaseResolution": 1,
    "PixelBandwidth": 1700,
    "ProcedureStepDescription": "KFU_Entw-Psy",
    "ProtocolName": "fMRI_1",
    "PulseSequenceDetails": "%SiemensSeq%_ep2d_pace",
    "ReceiveCoilActiveElements": "HE1-4",
    "ReceiveCoilName": "HeadNeck_20",
    "ReconMatrixPE": 64,
    "RepetitionTime": 2.34,
    "SAR": 0.164,
    "ScanOptions": "FS",
    "ScanningSequence": "EP",
    "SequenceName": "_epfid2d1_64",
    "SequenceVariant": "SK",
    "SeriesDescription": "fMRI_1",
    "SeriesNumber": 2,
    "ShimSetting": [
      -1581,
      -3679,
      -4355,
      391,
      128,
      43,
      462,
      -196
    ],
    "SliceThickness": 3,
    "SliceTiming": [
      2.2525,
      2.185,
      2.115,
      2.0475,
      1.98,
      1.91,
      1.8425,
      1.775,
      1.7075,
      1.6375,
      1.57,
      1.5025,
      1.4325,
      1.365,
      1.2975,
      1.23,
      1.16,
      1.0925,
      1.025,
      0.955,
      0.8875,
      0.82,
      0.7525,
      0.6825,
      0.615,
      0.5475,
      0.4775,
      0.41,
      0.3425,
      0.2725,
      0.205,
      0.1375,
      0.07,
      0
    ],
    "SoftwareVersions": "syngo_MR_D13",
    "SpacingBetweenSlices": 3.3,
    "StationName": "FBMTMR1",
    "TaskName": "read",
    "TotalReadoutTime": 0.0409508,
    "TxRefAmp": 348.818,
    "dataset": "ds003126",
    "dcmmeta_affine": [
      [
        -2.999758005142212,
        0.010471254587173462,
        -0.04030996561050415,
        98.46902465820312
      ],
      [
        0.016256436705589294,
        2.9605278968811035,
        -0.5332570672035217,
        -110.46932983398438
      ],
      [
        -0.03447118028998375,
        0.4849385917186737,
        3.256380319595337,
        -16.12107276916504
      ],
      [
        0.0,
        0.0,
        0.0,
        1.0
      ]
    ],
    "dcmmeta_reorient_transform": [
      [
        0.0,
        -1.0,
        0.0,
        63.0
      ],
      [
        1.0,
        0.0,
        0.0,
        0.0
      ],
      [
        0.0,
        0.0,
        1.0,
        0.0
      ],
      [
        0.0,
        0.0,
        0.0,
        1.0
      ]
    ],
    "dcmmeta_shape": [
      64,
      64,
      34,
      127
    ],
    "dcmmeta_slice_dim": 2,
    "dcmmeta_version": 0.6,
    "global": {
      "const": {
        "AcquisitionMatrix": [
          64,
          0,
          0,
          64
        ],
        "AngioFlag": "N",
        "BitsAllocated": 16,
        "BitsStored": 12,
        "BodyPartExamined": "HEAD",
        "Columns": 384,
        "EchoNumbers": 1,
        "EchoTime": 33.0,
        "EchoTrainLength": 64,
        "FlipAngle": 90.0,
        "HighBit": 11,
        "ImageOrientationPatient": [
          0.9999193004065,
          -0.0054188124749,
          -0.0114903936374,
          0.00349041823907,
          0.98684260327277,
          -0.1616461980572
        ],
        "ImagePositionPatient": [
          -580.76537642839,
          -547.12733967509,
          97.535621995045
        ],
        "ImageType": [
          "ORIGINAL",
          "PRIMARY",
          "M",
          "ND",
          "NORM",
          "MOSAIC"
        ],
        "ImagedNucleus": "1H",
        "ImagingFrequency": 123.214432,
        "InPlanePhaseEncodingDirection": "COL",
        "MRAcquisitionType": "2D",
        "MagneticFieldStrength": 3.0,
        "Manufacturer": "SIEMENS",
        "ManufacturerModelName": "Skyra",
        "Modality": "MR",
        "NumberOfAverages": 1.0,
        "NumberOfPhaseEncodingSteps": 64,
        "PercentPhaseFieldOfView": 100.0,
        "PercentSampling": 100.0,
        "PerformedProcedureStepStartTime": "092311.477000",
        "PhotometricInterpretation": "MONOCHROME2",
        "PixelBandwidth": 1700.0,
        "PixelRepresentation": 0,
        "PixelSpacing": [
          3.0,
          3.0
        ],
        "ProtocolName": "fMRI_1",
        "RepetitionTime": 2340.0,
        "Rows": 384,
        "SAR": 0.1640003200646,
        "SamplesPerPixel": 1,
        "ScanOptions": "FS",
        "ScanningSequence": "EP",
        "SequenceName": "*epfid2d1_64",
        "SequenceVariant": "SK",
        "SeriesDescription": "fMRI_1",
        "SeriesNumber": 2,
        "SeriesTime": "093019.962000",
        "SliceLocation": 0.74027985301111,
        "SliceThickness": 3.0,
        "SmallestImagePixelValue": 0,
        "SoftwareVersions": "syngo MR D13",
        "SpacingBetweenSlices": 3.3000000462393,
        "SpecificCharacterSet": "ISO_IR 100",
        "StudyID": "1",
        "StudyTime": "092311.421000",
        "TransmitCoilName": "Body",
        "VariableFlipAngleFlag": "N",
        "WindowCenterWidthExplanation": "Algo1",
        "dBdt": 0.0
      },
      "slices": {}
    },
    "modality": "bold",
    "run_id": 1,
    "session_id": "2",
    "subject_id": "047EPKL011011",
    "task_id": "read",
    "time": {
      "samples": {
        "AcquisitionNumber": [
          1,
          2,
          3,
          4,
          5,
          6,
          7,
          8,
          9,
          10,
          11,
          12,
          13,
          14,
          15,
          16,
          17,
          18,
          19,
          20,
          21,
          22,
          23,
          24,
          25,
          26,
          27,
          28,
          29,
          30,
          31,
          32,
          33,
          34,
          35,
          36,
          37,
          38,
          39,
          40,
          41,
          42,
          43,
          44,
          45,
          46,
          47,
          48,
          49,
          50,
          51,
          52,
          53,
          54,
          55,
          56,
          57,
          58,
          59,
          60,
          61,
          62,
          63,
          64,
          65,
          66,
          67,
          68,
          69,
          70,
          71,
          72,
          73,
          74,
          75,
          76,
          77,
          78,
          79,
          80,
          81,
          82,
          83,
          84,
          85,
          86,
          87,
          88,
          89,
          90,
          91,
          92,
          93,
          94,
          95,
          96,
          97,
          98,
          99,
          100,
          101,
          102,
          103,
          104,
          105,
          106,
          107,
          108,
          109,
          110,
          111,
          112,
          113,
          114,
          115,
          116,
          117,
          118,
          119,
          120,
          121,
          122,
          123,
          124,
          125,
          126,
          127
        ],
        "AcquisitionTime": [
          "092924.395000",
          "092926.735000",
          "092929.075000",
          "092931.415000",
          "092933.755000",
          "092936.095000",
          "092938.435000",
          "092940.775000",
          "092943.115000",
          "092945.455000",
          "092947.795000",
          "092950.135000",
          "092952.475000",
          "092954.815000",
          "092957.155000",
          "092959.495000",
          "093001.835000",
          "093004.175000",
          "093006.515000",
          "093008.855000",
          "093011.195000",
          "093013.535000",
          "093015.875000",
          "093018.215000",
          "093020.555000",
          "093022.895000",
          "093025.235000",
          "093027.575000",
          "093029.915000",
          "093032.255000",
          "093034.595000",
          "093036.935000",
          "093039.275000",
          "093041.615000",
          "093043.955000",
          "093046.295000",
          "093048.635000",
          "093050.975000",
          "093053.315000",
          "093055.655000",
          "093057.995000",
          "093100.335000",
          "093102.675000",
          "093105.015000",
          "093107.355000",
          "093109.695000",
          "093112.035000",
          "093114.375000",
          "093116.715000",
          "093119.055000",
          "093121.395000",
          "093123.735000",
          "093126.075000",
          "093128.415000",
          "093130.755000",
          "093133.095000",
          "093135.435000",
          "093137.775000",
          "093140.115000",
          "093142.455000",
          "093144.795000",
          "093147.135000",
          "093149.475000",
          "093151.815000",
          "093154.155000",
          "093156.495000",
          "093158.835000",
          "093201.175000",
          "093203.515000",
          "093205.855000",
          "093208.195000",
          "093210.535000",
          "093212.875000",
          "093215.215000",
          "093217.555000",
          "093219.895000",
          "093222.235000",
          "093224.575000",
          "093226.915000",
          "093229.255000",
          "093231.595000",
          "093233.935000",
          "093236.275000",
          "093238.615000",
          "093240.955000",
          "093243.295000",
          "093245.635000",
          "093247.975000",
          "093250.315000",
          "093252.655000",
          "093254.995000",
          "093257.335000",
          "093259.675000",
          "093302.015000",
          "093304.355000",
          "093306.695000",
          "093309.035000",
          "093311.375000",
          "093313.715000",
          "093316.055000",
          "093318.395000",
          "093320.735000",
          "093323.075000",
          "093325.415000",
          "093327.755000",
          "093330.095000",
          "093332.435000",
          "093334.775000",
          "093337.115000",
          "093339.455000",
          "093341.795000",
          "093344.135000",
          "093346.475000",
          "093348.815000",
          "093351.155000",
          "093353.495000",
          "093355.835000",
          "093358.175000",
          "093400.515000",
          "093402.855000",
          "093405.195000",
          "093407.535000",
          "093409.875000",
          "093412.215000",
          "093414.555000",
          "093416.895000",
          "093419.235000"
        ],
        "ContentTime": [
          "093019.967000",
          "093019.970000",
          "093019.982000",
          "093019.985000",
          "093019.988000",
          "093019.990000",
          "093019.994000",
          "093019.997000",
          "093020.000000",
          "093020.003000",
          "093020.006000",
          "093020.009000",
          "093020.011000",
          "093020.014000",
          "093020.017000",
          "093020.020000",
          "093020.023000",
          "093020.026000",
          "093020.029000",
          "093020.032000",
          "093020.035000",
          "093020.037000",
          "093020.040000",
          "093020.043000",
          "093119.962000",
          "093119.966000",
          "093119.968000",
          "093119.971000",
          "093119.974000",
          "093119.977000",
          "093119.980000",
          "093119.983000",
          "093119.986000",
          "093119.989000",
          "093119.992000",
          "093119.995000",
          "093119.998000",
          "093120.001000",
          "093120.004000",
          "093120.007000",
          "093120.010000",
          "093120.012000",
          "093120.015000",
          "093120.018000",
          "093120.021000",
          "093120.023000",
          "093120.026000",
          "093120.029000",
          "093120.036000",
          "093120.039000",
          "093219.963000",
          "093219.966000",
          "093219.969000",
          "093219.972000",
          "093219.979000",
          "093219.982000",
          "093219.985000",
          "093219.987000",
          "093219.991000",
          "093219.993000",
          "093219.996000",
          "093219.999000",
          "093220.002000",
          "093220.005000",
          "093220.008000",
          "093220.015000",
          "093220.018000",
          "093220.021000",
          "093220.024000",
          "093220.026000",
          "093220.029000",
          "093220.032000",
          "093220.034000",
          "093220.037000",
          "093220.040000",
          "093319.960000",
          "093319.963000",
          "093319.972000",
          "093319.974000",
          "093319.977000",
          "093319.980000",
          "093319.983000",
          "093319.986000",
          "093319.989000",
          "093319.991000",
          "093319.995000",
          "093319.998000",
          "093320.001000",
          "093320.004000",
          "093320.007000",
          "093320.009000",
          "093320.012000",
          "093320.015000",
          "093320.017000",
          "093320.020000",
          "093320.023000",
          "093320.028000",
          "093320.032000",
          "093320.035000",
          "093320.037000",
          "093320.040000",
          "093419.961000",
          "093419.965000",
          "093419.968000",
          "093419.970000",
          "093419.973000",
          "093419.976000",
          "093419.979000",
          "093419.981000",
          "093419.984000",
          "093419.987000",
          "093419.990000",
          "093419.992000",
          "093419.995000",
          "093419.998000",
          "093420.002000",
          "093420.004000",
          "093420.007000",
          "093420.010000",
          "093420.013000",
          "093420.015000",
          "093420.018000",
          "093420.021000",
          "093420.024000",
          "093420.026000",
          "093420.029000",
          "093420.032000"
        ],
        "InstanceCreationTime": [
          "093019.967000",
          "093019.970000",
          "093019.982000",
          "093019.985000",
          "093019.988000",
          "093019.990000",
          "093019.994000",
          "093019.997000",
          "093020.000000",
          "093020.003000",
          "093020.006000",
          "093020.009000",
          "093020.011000",
          "093020.014000",
          "093020.017000",
          "093020.020000",
          "093020.023000",
          "093020.026000",
          "093020.029000",
          "093020.032000",
          "093020.035000",
          "093020.037000",
          "093020.040000",
          "093020.043000",
          "093119.962000",
          "093119.966000",
          "093119.968000",
          "093119.971000",
          "093119.974000",
          "093119.977000",
          "093119.980000",
          "093119.983000",
          "093119.986000",
          "093119.989000",
          "093119.992000",
          "093119.995000",
          "093119.998000",
          "093120.001000",
          "093120.004000",
          "093120.007000",
          "093120.010000",
          "093120.012000",
          "093120.015000",
          "093120.018000",
          "093120.021000",
          "093120.023000",
          "093120.026000",
          "093120.029000",
          "093120.036000",
          "093120.039000",
          "093219.963000",
          "093219.966000",
          "093219.969000",
          "093219.972000",
          "093219.979000",
          "093219.982000",
          "093219.985000",
          "093219.987000",
          "093219.991000",
          "093219.993000",
          "093219.996000",
          "093219.999000",
          "093220.002000",
          "093220.005000",
          "093220.008000",
          "093220.015000",
          "093220.018000",
          "093220.021000",
          "093220.024000",
          "093220.026000",
          "093220.029000",
          "093220.032000",
          "093220.034000",
          "093220.037000",
          "093220.040000",
          "093319.960000",
          "093319.963000",
          "093319.972000",
          "093319.974000",
          "093319.977000",
          "093319.980000",
          "093319.983000",
          "093319.986000",
          "093319.989000",
          "093319.991000",
          "093319.995000",
          "093319.998000",
          "093320.001000",
          "093320.004000",
          "093320.007000",
          "093320.009000",
          "093320.012000",
          "093320.015000",
          "093320.017000",
          "093320.020000",
          "093320.023000",
          "093320.028000",
          "093320.032000",
          "093320.035000",
          "093320.037000",
          "093320.040000",
          "093419.961000",
          "093419.965000",
          "093419.968000",
          "093419.970000",
          "093419.973000",
          "093419.976000",
          "093419.979000",
          "093419.981000",
          "093419.984000",
          "093419.987000",
          "093419.990000",
          "093419.992000",
          "093419.995000",
          "093419.998000",
          "093420.002000",
          "093420.004000",
          "093420.007000",
          "093420.010000",
          "093420.013000",
          "093420.015000",
          "093420.018000",
          "093420.021000",
          "093420.024000",
          "093420.026000",
          "093420.029000",
          "093420.032000"
        ],
        "InstanceNumber": [
          1,
          2,
          3,
          4,
          5,
          6,
          7,
          8,
          9,
          10,
          11,
          12,
          13,
          14,
          15,
          16,
          17,
          18,
          19,
          20,
          21,
          22,
          23,
          24,
          25,
          26,
          27,
          28,
          29,
          30,
          31,
          32,
          33,
          34,
          35,
          36,
          37,
          38,
          39,
          40,
          41,
          42,
          43,
          44,
          45,
          46,
          47,
          48,
          49,
          50,
          51,
          52,
          53,
          54,
          55,
          56,
          57,
          58,
          59,
          60,
          61,
          62,
          63,
          64,
          65,
          66,
          67,
          68,
          69,
          70,
          71,
          72,
          73,
          74,
          75,
          76,
          77,
          78,
          79,
          80,
          81,
          82,
          83,
          84,
          85,
          86,
          87,
          88,
          89,
          90,
          91,
          92,
          93,
          94,
          95,
          96,
          97,
          98,
          99,
          100,
          101,
          102,
          103,
          104,
          105,
          106,
          107,
          108,
          109,
          110,
          111,
          112,
          113,
          114,
          115,
          116,
          117,
          118,
          119,
          120,
          121,
          122,
          123,
          124,
          125,
          126,
          127
        ],
        "LargestImagePixelValue": [
          2963,
          1977,
          3108,
          2187,
          2725,
          2520,
          2551,
          2041,
          2601,
          2674,
          2105,
          2446,
          2046,
          2228,
          1959,
          2329,
          2716,
          1949,
          2209,
          2005,
          3224,
          2046,
          2756,
          1936,
          2078,
          2176,
          2019,
          1960,
          2189,
          2426,
          1929,
          2035,
          2936,
          2123,
          2564,
          1956,
          2292,
          1845,
          2354,
          2101,
          2040,
          2280,
          2696,
          2652,
          2816,
          2356,
          2013,
          2022,
          2259,
          2700,
          2167,
          2785,
          1999,
          2075,
          2095,
          2940,
          1872,
          1960,
          1962,
          2717,
          1944,
          2002,
          2262,
          2024,
          2209,
          2050,
          2775,
          2120,
          2465,
          1979,
          2400,
          1988,
          1997,
          2580,
          2017,
          1960,
          3149,
          2078,
          2028,
          2001,
          2955,
          1955,
          1928,
          2537,
          1935,
          2128,
          2545,
          2307,
          2330,
          2097,
          2620,
          1972,
          2586,
          2103,
          1970,
          2092,
          2405,
          2054,
          2226,
          2001,
          1961,
          2334,
          2782,
          2035,
          3039,
          2793,
          2058,
          3206,
          1910,
          2268,
          2073,
          2082,
          1997,
          1978,
          1964,
          2080,
          2004,
          2352,
          3117,
          3233,
          1943,
          1925,
          2211,
          1917,
          2033,
          2032,
          2068
        ],
        "WindowCenter": [
          824.0,
          822.0,
          824.0,
          823.0,
          824.0,
          823.0,
          822.0,
          822.0,
          824.0,
          823.0,
          822.0,
          822.0,
          821.0,
          823.0,
          824.0,
          825.0,
          823.0,
          821.0,
          824.0,
          825.0,
          823.0,
          822.0,
          823.0,
          823.0,
          823.0,
          823.0,
          823.0,
          824.0,
          824.0,
          825.0,
          823.0,
          822.0,
          824.0,
          823.0,
          823.0,
          823.0,
          825.0,
          824.0,
          827.0,
          825.0,
          825.0,
          825.0,
          825.0,
          826.0,
          825.0,
          825.0,
          825.0,
          826.0,
          824.0,
          826.0,
          825.0,
          825.0,
          825.0,
          825.0,
          825.0,
          825.0,
          826.0,
          826.0,
          827.0,
          827.0,
          825.0,
          831.0,
          828.0,
          828.0,
          827.0,
          827.0,
          829.0,
          828.0,
          826.0,
          826.0,
          827.0,
          827.0,
          827.0,
          827.0,
          828.0,
          828.0,
          831.0,
          829.0,
          827.0,
          828.0,
          830.0,
          828.0,
          830.0,
          833.0,
          830.0,
          830.0,
          829.0,
          829.0,
          830.0,
          830.0,
          829.0,
          829.0,
          829.0,
          829.0,
          829.0,
          830.0,
          830.0,
          831.0,
          831.0,
          831.0,
          831.0,
          831.0,
          831.0,
          829.0,
          830.0,
          831.0,
          829.0,
          831.0,
          830.0,
          830.0,
          829.0,
          830.0,
          831.0,
          831.0,
          833.0,
          828.0,
          833.0,
          831.0,
          827.0,
          829.0,
          822.0,
          827.0,
          829.0,
          830.0,
          833.0,
          835.0,
          834.0
        ],
        "WindowWidth": [
          1735.0,
          1727.0,
          1734.0,
          1729.0,
          1733.0,
          1731.0,
          1728.0,
          1727.0,
          1732.0,
          1731.0,
          1728.0,
          1729.0,
          1725.0,
          1732.0,
          1732.0,
          1734.0,
          1731.0,
          1723.0,
          1730.0,
          1735.0,
          1731.0,
          1727.0,
          1732.0,
          1729.0,
          1730.0,
          1730.0,
          1731.0,
          1732.0,
          1732.0,
          1737.0,
          1729.0,
          1727.0,
          1735.0,
          1730.0,
          1730.0,
          1730.0,
          1736.0,
          1734.0,
          1741.0,
          1735.0,
          1736.0,
          1737.0,
          1736.0,
          1738.0,
          1737.0,
          1735.0,
          1737.0,
          1738.0,
          1734.0,
          1740.0,
          1735.0,
          1737.0,
          1735.0,
          1736.0,
          1735.0,
          1737.0,
          1736.0,
          1737.0,
          1740.0,
          1741.0,
          1734.0,
          1750.0,
          1744.0,
          1742.0,
          1741.0,
          1742.0,
          1747.0,
          1743.0,
          1740.0,
          1737.0,
          1742.0,
          1740.0,
          1741.0,
          1741.0,
          1742.0,
          1744.0,
          1752.0,
          1746.0,
          1742.0,
          1742.0,
          1750.0,
          1741.0,
          1749.0,
          1758.0,
          1748.0,
          1749.0,
          1748.0,
          1746.0,
          1749.0,
          1750.0,
          1747.0,
          1745.0,
          1747.0,
          1748.0,
          1745.0,
          1748.0,
          1749.0,
          1749.0,
          1752.0,
          1751.0,
          1750.0,
          1750.0,
          1753.0,
          1745.0,
          1749.0,
          1750.0,
          1744.0,
          1754.0,
          1747.0,
          1748.0,
          1747.0,
          1749.0,
          1750.0,
          1752.0,
          1755.0,
          1751.0,
          1754.0,
          1748.0,
          1738.0,
          1747.0,
          1730.0,
          1742.0,
          1748.0,
          1748.0,
          1757.0,
          1760.0,
          1758.0
        ]
      },
      "slices": {}
    }
  },
  "dummy_trs": 0,
  "dvars_nstd": 37.4058318213492,
  "dvars_std": 1.3765605571428563,
  "dvars_vstd": 1.024984225634921,
  "efc": 0.5912700332935336,
  "fber": 1677.992919921875,
  "fd_mean": 0.39253043316891756,
  "fd_num": 77,
  "fd_perc": 60.62992125984252,
  "fwhm_avg": 1.6226257649109932,
  "fwhm_x": 1.5268466666666667,
  "fwhm_y": 1.8181033333333334,
  "fwhm_z": 1.5229272947329795,
  "gcor": 0.0979987,
  "gsr_x": -0.006244881544262171,
  "gsr_y": 0.04964234307408333,
  "provenance": {
    "md5sum": "1c5957474c329e3bdccb5e10e7dc8165",
    "settings": {
      "fd_thres": 0.2,
      "testing": false
    },
    "software": "mriqc",
    "version": "22.0.1",
    "webapi_port": null,
    "webapi_url": "https://mriqc.nimh.nih.gov/api/v1"
  },
  "size_t": 127,
  "size_x": 64,
  "size_y": 64,
  "size_z": 34,
  "snr": 6.8243404229806455,
  "spacing_tr": 2.3399999141693115,
  "spacing_x": 3.0,
  "spacing_y": 3.0,
  "spacing_z": 3.299999952316284,
  "summary_bg_k": 50.4661290737618,
  "summary_bg_mad": 10.063016076030284,
  "summary_bg_mean": 33.981666564941406,
  "summary_bg_median": 22.157480239868164,
  "summary_bg_n": 68613.0,
  "summary_bg_p05": 11.551180839538574,
  "summary_bg_p95": 96.62047271728507,
  "summary_bg_stdv": 42.38555908203125,
  "summary_fg_k": 3.14136950019679,
  "summary_fg_mad": 127.21779443457338,
  "summary_fg_mean": 937.080322265625,
  "summary_fg_median": 932.8543701171875,
  "summary_fg_n": 38082.0,
  "summary_fg_p05": 747.9393737792968,
  "summary_fg_p95": 1145.0468444824219,
  "summary_fg_stdv": 136.69337463378906,
  "tsnr": 49.36970199877396
}