{
  "aor": 0.003931984126984127,
  "aqi": 0.011206009206349204,
  "bids_meta": {
    "AcquisitionMatrixPE": 64,
    "AcquisitionNumber": 1,
    "AcquisitionTime": "12:56:53.385000",
    "BandwidthPerPixelPhaseEncode": 24.038,
    "BaseResolution": 64,
    "BodyPartExamined": "HEAD",
    "ConsistencyInfo": "N4_VD13A_LATEST_20120616",
    "ConversionSoftware": "dcm2niix",
    "ConversionSoftwareVersion": "v1.0.20181125  GCC6.3.0",
    "DerivedVendorReportedEchoSpacing": 0.000650012,
    "DeviceSerialNumber": "45250",
    "DwellTime": 4.6e-06,
    "EchoTime": 0.033,
    "EchoTrainLength": 64,
    "EffectiveEchoSpacing": 0.000650012,
    "FlipAngle": 90,
    "ImageOrientationPatientDICOM": [
      0.997073,
      0.0589081,
      0.0487397,
      -0.055745,
      0.996399,
      -0.0638928
    ],
    "ImageType": [
      "ORIGINAL",
      "PRIMARY",
      "M",
      "ND",
      "NORM",
      "MOSAIC"
    ],
    "ImagingFrequency": 123.22,
    "InPlanePhaseEncodingDirectionDICOM": "COL",
    "InstitutionAddress": "Kopernikusstr._26_Graz_Graz_AT_8010",
    "InstitutionName": "KFU",
    "InstitutionalDepartmentName": "Department",
    "MRAcquisitionType": "2D",
    "MagneticFieldStrength": 3,
    "Manufacturer": "Siemens",
    "ManufacturersModelName": "Skyra",
    "Modality": "MR",
    "PartialFourier": 1,
    "PatientPosition": "HFS",
    "PercentPhaseFOV": 100,
    "PhaseEncodingDirection": "j-",
    "PhaseEncodingSteps": 64,
    "PhaseResolution": 1,
    "PixelBandwidth": 1700,
    "ProcedureStepDescription": "KFU_Entw-Psy",
    "ProtocolName": "fMRI_2",
    "PulseSequenceDetails": "%SiemensSeq%_ep2d_pace",
    "ReceiveCoilActiveElements": "HE1-4",
    "ReceiveCoilName": "HeadNeck_20",
    "ReconMatrixPE": 64,
    "RepetitionTime": 2.34,
    "SAR": 0.20273,
    "ScanOptions": "FS",
    "ScanningSequence": "EP",
    "SequenceName": "_epfid2d1_64",
    "SequenceVariant": "SK",
    "SeriesDescription": "fMRI_2",
    "SeriesNumber": 5,
    "ShimSetting": [
      -1621,
      -3926,
      -4138,
      691,
      450,
      -320,
      309,
      -341
    ],
    "SliceThickness": 3,
    "SliceTiming": [
      2.25,
      2.1825,
      2.115,
      2.0475,
      1.9775,
      1.91,
      1.8425,
      1.7725,
      1.705,
      1.6375,
      1.57,
      1.5,
      1.4325,
      1.365,
      1.295,
      1.2275,
      1.16,
      1.09,
      1.0225,
      0.955,
      0.8875,
      0.8175,
      0.75,
      0.6825,
      0.6125,
      0.545,
      0.4775,
      0.41,
      0.34,
      0.2725,
      0.205,
      0.135,
      0.0675,
      0
    ],
    "SoftwareVersions": "syngo_MR_D13",
    "SpacingBetweenSlices": 3.3,
    "StationName": "FBMTMR1",
    "TaskName": "read",
    "TotalReadoutTime": 0.0409508,
    "TxRefAmp": 342.715,
    "dataset": "ds003126",
    "dcmmeta_affine": [
      [
        -2.9912185668945312,
        -0.1672351211309433,
        0.17268235981464386,
        95.9363021850586
      ],
      [
        -0.1767244040966034,
        2.9891958236694336,
        -0.2012629359960556,
        -90.81481170654297
      ],
      [
        0.1462191343307495,
        0.19167837500572205,
        3.289327383041382,
        1.3237193822860718
      ],
      [
        0.0,
        0.0,
        0.0,
        1.0
      ]
    ],
    "dcmmeta_reorient_transform": [
      [
        0.0,
        -1.0,
        0.0,
        63.0
      ],
      [
        1.0,
        0.0,
        0.0,
        0.0
      ],
      [
        0.0,
        0.0,
        1.0,
        0.0
      ],
      [
        0.0,
        0.0,
        0.0,
        1.0
      ]
    ],
    "dcmmeta_shape": [
      64,
      64,
      34,
      126
    ],
    "dcmmeta_slice_dim": 2,
    "dcmmeta_version": 0.6,
    "global": {
      "const": {
        "AcquisitionMatrix": [
          64,
          0,
          0,
          64
        ],
        "AngioFlag": "N",
        "BitsAllocated": 16,
        "BitsStored": 12,
        "BodyPartExamined": "HEAD",
        "Columns": 384,
        "EchoNumbers": 1,
        "EchoTime": 33.0,
        "EchoTrainLength": 64,
        "FlipAngle": 90.0,
        "HighBit": 11,
        "ImageOrientationPatient": [
          0.99707285206895,
          0.0589081330607,
          0.04873971200556,
          -0.0557450399781,
          0.99639861588603,
          -0.0638927912854
        ],
        "ImagePositionPatient": [
          -537.23784073755,
          -604.05176409734,
          20.672934941455
        ],
        "ImageType": [
          "ORIGINAL",
          "PRIMARY",
          "M",
          "ND",
          "NORM",
          "MOSAIC"
        ],
        "ImagedNucleus": "1H",
        "ImagingFrequency": 123.22007,
        "InPlanePhaseEncodingDirection": "COL",
        "MRAcquisitionType": "2D",
        "MagneticFieldStrength": 3.0,
        "Manufacturer": "SIEMENS",
        "ManufacturerModelName": "Skyra",
        "Modality": "MR",
        "NumberOfAverages": 1.0,
        "NumberOfPhaseEncodingSteps": 64,
        "PercentPhaseFieldOfView": 100.0,
        "PercentSampling": 100.0,
        "PerformedProcedureStepStartTime": "124447.726000",
        "PhotometricInterpretation": "MONOCHROME2",
        "PixelBandwidth": 1700.0,
        "PixelRepresentation": 0,
        "PixelSpacing": [
          3.0,
          3.0
        ],
        "ProtocolName": "fMRI_2",
        "RepetitionTime": 2340.0,
        "Rows": 384,
        "SAR": 0.20272974847114,
        "SamplesPerPixel": 1,
        "ScanOptions": "FS",
        "ScanningSequence": "EP",
        "SequenceName": "*epfid2d1_64",
        "SequenceVariant": "SK",
        "SeriesDescription": "fMRI_2",
        "SeriesNumber": 5,
        "SeriesTime": "125749.861000",
        "SliceLocation": 11.878275659768,
        "SliceThickness": 3.0,
        "SmallestImagePixelValue": 0,
        "SoftwareVersions": "syngo MR D13",
        "SpacingBetweenSlices": 3.2999999821101,
        "SpecificCharacterSet": "ISO_IR 100",
        "StudyID": "1",
        "StudyTime": "124447.667000",
        "TransmitCoilName": "Body",
        "VariableFlipAngleFlag": "N",
        "WindowCenterWidthExplanation": "Algo1",
        "dBdt": 0.0
      },
      "slices": {}
    },
    "modality": "bold",
    "run_id": 2,
    "session_id": "2",
    "subject_id": "047EPKL014062",
    "task_id": "read",
    "time": {
      "samples": {
        "AcquisitionNumber": [
          1,
          2,
          3,
          4,
          5,
          6,
          7,
          8,
          9,
          10,
          11,
          12,
          13,
          14,
          15,
          16,
          17,
          18,
          19,
          20,
          21,
          22,
          23,
          24,
          25,
          26,
          27,
          28,
          29,
          30,
          31,
          32,
          33,
          34,
          35,
          36,
          37,
          38,
          39,
          40,
          41,
          42,
          43,
          44,
          45,
          46,
          47,
          48,
          49,
          50,
          51,
          52,
          53,
          54,
          55,
          56,
          57,
          58,
          59,
          60,
          61,
          62,
          63,
          64,
          65,
          66,
          67,
          68,
          69,
          70,
          71,
          72,
          73,
          74,
          75,
          76,
          77,
          78,
          79,
          80,
          81,
          82,
          83,
          84,
          85,
          86,
          87,
          88,
          89,
          90,
          91,
          92,
          93,
          94,
          95,
          96,
          97,
          98,
          99,
          100,
          101,
          102,
          103,
          104,
          105,
          106,
          107,
          108,
          109,
          110,
          111,
          112,
          113,
          114,
          115,
          116,
          117,
          118,
          119,
          120,
          121,
          122,
          123,
          124,
          125,
          126
        ],
        "AcquisitionTime": [
          "125653.385000",
          "125655.725000",
          "125658.065000",
          "125700.405000",
          "125702.745000",
          "125705.085000",
          "125707.425000",
          "125709.765000",
          "125712.105000",
          "125714.445000",
          "125716.785000",
          "125719.125000",
          "125721.465000",
          "125723.805000",
          "125726.145000",
          "125728.485000",
          "125730.825000",
          "125733.165000",
          "125735.505000",
          "125737.845000",
          "125740.185000",
          "125742.525000",
          "125744.865000",
          "125747.205000",
          "125749.545000",
          "125751.885000",
          "125754.225000",
          "125756.565000",
          "125758.905000",
          "125801.245000",
          "125803.585000",
          "125805.925000",
          "125808.265000",
          "125810.605000",
          "125812.945000",
          "125815.285000",
          "125817.625000",
          "125819.965000",
          "125822.305000",
          "125824.645000",
          "125826.985000",
          "125829.325000",
          "125831.665000",
          "125834.005000",
          "125836.345000",
          "125838.685000",
          "125841.025000",
          "125843.365000",
          "125845.705000",
          "125848.045000",
          "125850.385000",
          "125852.725000",
          "125855.065000",
          "125857.405000",
          "125859.745000",
          "125902.085000",
          "125904.425000",
          "125906.765000",
          "125909.105000",
          "125911.445000",
          "125913.785000",
          "125916.125000",
          "125918.465000",
          "125920.805000",
          "125923.145000",
          "125925.485000",
          "125927.825000",
          "125930.165000",
          "125932.505000",
          "125934.845000",
          "125937.185000",
          "125939.525000",
          "125941.865000",
          "125944.205000",
          "125946.545000",
          "125948.885000",
          "125951.225000",
          "125953.565000",
          "125955.905000",
          "125958.245000",
          "130000.585000",
          "130002.925000",
          "130005.265000",
          "130007.605000",
          "130009.945000",
          "130012.285000",
          "130014.625000",
          "130016.965000",
          "130019.305000",
          "130021.645000",
          "130023.985000",
          "130026.325000",
          "130028.665000",
          "130031.005000",
          "130033.345000",
          "130035.685000",
          "130038.025000",
          "130040.365000",
          "130042.705000",
          "130045.045000",
          "130047.385000",
          "130049.725000",
          "130052.065000",
          "130054.405000",
          "130056.745000",
          "130059.085000",
          "130101.425000",
          "130103.765000",
          "130106.105000",
          "130108.445000",
          "130110.785000",
          "130113.125000",
          "130115.465000",
          "130117.805000",
          "130120.145000",
          "130122.485000",
          "130124.825000",
          "130127.165000",
          "130129.505000",
          "130131.845000",
          "130134.185000",
          "130136.525000",
          "130138.865000",
          "130141.205000",
          "130143.545000",
          "130145.885000"
        ],
        "ContentTime": [
          "125749.866000",
          "125749.870000",
          "125749.879000",
          "125749.882000",
          "125749.884000",
          "125749.893000",
          "125749.895000",
          "125749.898000",
          "125749.901000",
          "125749.903000",
          "125749.906000",
          "125749.909000",
          "125749.912000",
          "125749.915000",
          "125749.918000",
          "125749.920000",
          "125749.923000",
          "125749.927000",
          "125749.929000",
          "125749.932000",
          "125749.935000",
          "125749.938000",
          "125749.940000",
          "125749.943000",
          "125849.860000",
          "125849.864000",
          "125849.866000",
          "125849.869000",
          "125849.872000",
          "125849.874000",
          "125849.877000",
          "125849.880000",
          "125849.882000",
          "125849.892000",
          "125849.895000",
          "125849.897000",
          "125849.900000",
          "125849.903000",
          "125849.906000",
          "125849.909000",
          "125849.911000",
          "125849.914000",
          "125849.917000",
          "125849.919000",
          "125849.922000",
          "125849.924000",
          "125849.927000",
          "125849.930000",
          "125849.932000",
          "125849.941000",
          "125949.860000",
          "125949.864000",
          "125949.866000",
          "125949.869000",
          "125949.871000",
          "125949.874000",
          "125949.877000",
          "125949.879000",
          "125949.882000",
          "125949.885000",
          "125949.888000",
          "125949.890000",
          "125949.893000",
          "125949.896000",
          "125949.898000",
          "125949.901000",
          "125949.903000",
          "125949.906000",
          "125949.909000",
          "125949.912000",
          "125949.914000",
          "125949.917000",
          "125949.920000",
          "125949.922000",
          "125949.925000",
          "125949.928000",
          "130049.859000",
          "130049.862000",
          "130049.872000",
          "130049.880000",
          "130049.883000",
          "130049.885000",
          "130049.888000",
          "130049.891000",
          "130049.894000",
          "130049.897000",
          "130049.900000",
          "130049.902000",
          "130049.905000",
          "130049.907000",
          "130049.910000",
          "130049.913000",
          "130049.915000",
          "130049.918000",
          "130049.921000",
          "130049.923000",
          "130049.926000",
          "130049.928000",
          "130049.931000",
          "130049.934000",
          "130049.937000",
          "130148.385000",
          "130148.389000",
          "130148.392000",
          "130148.395000",
          "130148.398000",
          "130148.401000",
          "130148.404000",
          "130148.407000",
          "130148.409000",
          "130148.412000",
          "130148.415000",
          "130148.417000",
          "130148.420000",
          "130148.423000",
          "130148.426000",
          "130148.428000",
          "130148.431000",
          "130148.434000",
          "130148.436000",
          "130148.439000",
          "130148.442000",
          "130148.444000",
          "130148.447000",
          "130148.450000",
          "130148.452000"
        ],
        "InstanceCreationTime": [
          "125749.866000",
          "125749.870000",
          "125749.879000",
          "125749.882000",
          "125749.884000",
          "125749.893000",
          "125749.895000",
          "125749.898000",
          "125749.901000",
          "125749.903000",
          "125749.906000",
          "125749.909000",
          "125749.912000",
          "125749.915000",
          "125749.918000",
          "125749.920000",
          "125749.923000",
          "125749.927000",
          "125749.929000",
          "125749.932000",
          "125749.935000",
          "125749.938000",
          "125749.940000",
          "125749.943000",
          "125849.860000",
          "125849.864000",
          "125849.866000",
          "125849.869000",
          "125849.872000",
          "125849.874000",
          "125849.877000",
          "125849.880000",
          "125849.882000",
          "125849.892000",
          "125849.895000",
          "125849.897000",
          "125849.900000",
          "125849.903000",
          "125849.906000",
          "125849.909000",
          "125849.911000",
          "125849.914000",
          "125849.917000",
          "125849.919000",
          "125849.922000",
          "125849.924000",
          "125849.927000",
          "125849.930000",
          "125849.932000",
          "125849.941000",
          "125949.860000",
          "125949.864000",
          "125949.866000",
          "125949.869000",
          "125949.871000",
          "125949.874000",
          "125949.877000",
          "125949.879000",
          "125949.882000",
          "125949.885000",
          "125949.888000",
          "125949.890000",
          "125949.893000",
          "125949.896000",
          "125949.898000",
          "125949.901000",
          "125949.903000",
          "125949.906000",
          "125949.909000",
          "125949.912000",
          "125949.914000",
          "125949.917000",
          "125949.920000",
          "125949.922000",
          "125949.925000",
          "125949.928000",
          "130049.859000",
          "130049.862000",
          "130049.872000",
          "130049.880000",
          "130049.883000",
          "130049.885000",
          "130049.888000",
          "130049.891000",
          "130049.894000",
          "130049.897000",
          "130049.900000",
          "130049.902000",
          "130049.905000",
          "130049.907000",
          "130049.910000",
          "130049.913000",
          "130049.915000",
          "130049.918000",
          "130049.921000",
          "130049.923000",
          "130049.926000",
          "130049.928000",
          "130049.931000",
          "130049.934000",
          "130049.937000",
          "130148.385000",
          "130148.389000",
          "130148.392000",
          "130148.395000",
          "130148.398000",
          "130148.401000",
          "130148.404000",
          "130148.407000",
          "130148.409000",
          "130148.412000",
          "130148.415000",
          "130148.417000",
          "130148.420000",
          "130148.423000",
          "130148.426000",
          "130148.428000",
          "130148.431000",
          "130148.434000",
          "130148.436000",
          "130148.439000",
          "130148.442000",
          "130148.444000",
          "130148.447000",
          "130148.450000",
          "130148.452000"
        ],
        "InstanceNumber": [
          1,
          2,
          3,
          4,
          5,
          6,
          7,
          8,
          9,
          10,
          11,
          12,
          13,
          14,
          15,
          16,
          17,
          18,
          19,
          20,
          21,
          22,
          23,
          24,
          25,
          26,
          27,
          28,
          29,
          30,
          31,
          32,
          33,
          34,
          35,
          36,
          37,
          38,
          39,
          40,
          41,
          42,
          43,
          44,
          45,
          46,
          47,
          48,
          49,
          50,
          51,
          52,
          53,
          54,
          55,
          56,
          57,
          58,
          59,
          60,
          61,
          62,
          63,
          64,
          65,
          66,
          67,
          68,
          69,
          70,
          71,
          72,
          73,
          74,
          75,
          76,
          77,
          78,
          79,
          80,
          81,
          82,
          83,
          84,
          85,
          86,
          87,
          88,
          89,
          90,
          91,
          92,
          93,
          94,
          95,
          96,
          97,
          98,
          99,
          100,
          101,
          102,
          103,
          104,
          105,
          106,
          107,
          108,
          109,
          110,
          111,
          112,
          113,
          114,
          115,
          116,
          117,
          118,
          119,
          120,
          121,
          122,
          123,
          124,
          125,
          126
        ],
        "LargestImagePixelValue": [
          1780,
          1790,
          1952,
          1816,
          1744,
          1871,
          1794,
          2251,
          2959,
          1783,
          1859,
          2130,
          1800,
          2069,
          1788,
          1794,
          1761,
          1859,
          1792,
          1751,
          1817,
          1735,
          1779,
          2507,
          1824,
          1747,
          2246,
          2804,
          2388,
          2170,
          1745,
          1819,
          1773,
          1836,
          1814,
          1843,
          1815,
          2257,
          2017,
          2165,
          2371,
          1766,
          1785,
          1729,
          1736,
          1762,
          1806,
          1776,
          2090,
          1826,
          1788,
          1751,
          2282,
          1991,
          2879,
          1839,
          1783,
          2041,
          1830,
          1870,
          1862,
          1755,
          1760,
          1771,
          1791,
          1844,
          1827,
          2655,
          1842,
          1816,
          1789,
          1772,
          1769,
          1784,
          1804,
          2451,
          2786,
          1920,
          1981,
          1817,
          2784,
          1824,
          1781,
          1836,
          1769,
          1794,
          1754,
          2193,
          2203,
          2418,
          2415,
          1791,
          1818,
          1837,
          1786,
          1767,
          1826,
          2517,
          1816,
          1851,
          2260,
          1752,
          1806,
          1792,
          1767,
          1816,
          1809,
          1772,
          2476,
          1766,
          1824,
          2580,
          2164,
          1819,
          1788,
          1741,
          1812,
          1894,
          1814,
          1805,
          1816,
          1768,
          1837,
          1775,
          1812,
          1802
        ],
        "WindowCenter": [
          776.0,
          775.0,
          774.0,
          773.0,
          775.0,
          777.0,
          778.0,
          780.0,
          778.0,
          773.0,
          773.0,
          775.0,
          774.0,
          776.0,
          774.0,
          776.0,
          775.0,
          775.0,
          776.0,
          775.0,
          777.0,
          776.0,
          777.0,
          777.0,
          776.0,
          775.0,
          778.0,
          778.0,
          777.0,
          775.0,
          773.0,
          773.0,
          773.0,
          776.0,
          778.0,
          780.0,
          779.0,
          777.0,
          776.0,
          775.0,
          776.0,
          776.0,
          777.0,
          775.0,
          774.0,
          773.0,
          775.0,
          775.0,
          776.0,
          775.0,
          774.0,
          777.0,
          778.0,
          775.0,
          775.0,
          775.0,
          775.0,
          777.0,
          776.0,
          775.0,
          774.0,
          775.0,
          778.0,
          777.0,
          779.0,
          779.0,
          778.0,
          780.0,
          776.0,
          775.0,
          775.0,
          776.0,
          776.0,
          777.0,
          777.0,
          778.0,
          778.0,
          776.0,
          777.0,
          775.0,
          776.0,
          774.0,
          774.0,
          773.0,
          775.0,
          775.0,
          776.0,
          778.0,
          776.0,
          775.0,
          776.0,
          775.0,
          775.0,
          776.0,
          778.0,
          778.0,
          778.0,
          779.0,
          777.0,
          778.0,
          778.0,
          777.0,
          777.0,
          778.0,
          777.0,
          778.0,
          778.0,
          777.0,
          780.0,
          778.0,
          779.0,
          781.0,
          779.0,
          777.0,
          778.0,
          779.0,
          778.0,
          779.0,
          778.0,
          777.0,
          777.0,
          777.0,
          778.0,
          778.0,
          779.0,
          781.0
        ],
        "WindowWidth": [
          1632.0,
          1630.0,
          1627.0,
          1626.0,
          1631.0,
          1634.0,
          1636.0,
          1642.0,
          1639.0,
          1625.0,
          1626.0,
          1630.0,
          1629.0,
          1632.0,
          1628.0,
          1632.0,
          1629.0,
          1630.0,
          1631.0,
          1630.0,
          1635.0,
          1633.0,
          1635.0,
          1637.0,
          1631.0,
          1630.0,
          1638.0,
          1639.0,
          1635.0,
          1630.0,
          1624.0,
          1625.0,
          1626.0,
          1632.0,
          1637.0,
          1640.0,
          1638.0,
          1635.0,
          1632.0,
          1631.0,
          1633.0,
          1633.0,
          1636.0,
          1628.0,
          1627.0,
          1626.0,
          1629.0,
          1630.0,
          1631.0,
          1629.0,
          1627.0,
          1634.0,
          1636.0,
          1630.0,
          1631.0,
          1631.0,
          1632.0,
          1635.0,
          1631.0,
          1629.0,
          1628.0,
          1629.0,
          1636.0,
          1634.0,
          1640.0,
          1638.0,
          1637.0,
          1643.0,
          1632.0,
          1630.0,
          1630.0,
          1632.0,
          1633.0,
          1635.0,
          1633.0,
          1639.0,
          1637.0,
          1632.0,
          1634.0,
          1629.0,
          1633.0,
          1627.0,
          1626.0,
          1626.0,
          1629.0,
          1630.0,
          1633.0,
          1636.0,
          1632.0,
          1630.0,
          1632.0,
          1629.0,
          1630.0,
          1632.0,
          1637.0,
          1636.0,
          1636.0,
          1639.0,
          1636.0,
          1636.0,
          1638.0,
          1634.0,
          1635.0,
          1636.0,
          1635.0,
          1637.0,
          1638.0,
          1634.0,
          1643.0,
          1636.0,
          1639.0,
          1645.0,
          1640.0,
          1634.0,
          1637.0,
          1640.0,
          1636.0,
          1639.0,
          1636.0,
          1635.0,
          1634.0,
          1635.0,
          1637.0,
          1636.0,
          1638.0,
          1644.0
        ]
      },
      "slices": {}
    }
  },
  "dummy_trs": 0,
  "dvars_nstd": 30.228638137839994,
  "dvars_std": 1.36563710632,
  "dvars_vstd": 1.0503515096,
  "efc": 0.5757547382761962,
  "fber": 1756.636474609375,
  "fd_mean": 0.27615681241787426,
  "fd_num": 72,
  "fd_perc": 57.142857142857146,
  "fwhm_avg": 1.6644108154687778,
  "fwhm_x": 1.5616633333333334,
  "fwhm_y": 1.8976933333333335,
  "fwhm_z": 1.5338757797396658,
  "gcor": 0.0377406,
  "gsr_x": -0.003984717186540365,
  "gsr_y": 0.043153222650289536,
  "provenance": {
    "md5sum": "eac9ef33f46010aa7defa0627d9480af",
    "settings": {
      "fd_thres": 0.2,
      "testing": false
    },
    "software": "mriqc",
    "version": "22.0.1",
    "webapi_port": null,
    "webapi_url": "https://mriqc.nimh.nih.gov/api/v1"
  },
  "size_t": 126,
  "size_x": 64,
  "size_y": 64,
  "size_z": 34,
  "snr": 7.574646223972326,
  "spacing_tr": 2.3399999141693115,
  "spacing_x": 3.0,
  "spacing_y": 3.0,
  "spacing_z": 3.299999952316284,
  "summary_bg_k": 33.76103087624809,
  "summary_bg_mad": 7.4071291867539095,
  "summary_bg_mean": 35.37641525268555,
  "summary_bg_median": 20.51984405517578,
  "summary_bg_n": 71978.0,
  "summary_bg_p05": 13.619048118591309,
  "summary_bg_p95": 100.35952873229971,
  "summary_bg_stdv": 49.84615707397461,
  "summary_fg_k": 3.5845816953266167,
  "summary_fg_mad": 105.01771747138551,
  "summary_fg_mean": 882.2041625976562,
  "summary_fg_median": 881.9365844726562,
  "summary_fg_n": 34509.0,
  "summary_fg_p05": 710.1524047851562,
  "summary_fg_p95": 1056.831787109375,
  "summary_fg_stdv": 116.43102264404297,
  "tsnr": 67.94491430372
}