{
  "aor": 0.0031072357723577228,
  "aqi": 0.011809559268292684,
  "bids_meta": {
    "AcquisitionMatrixPE": 64,
    "AcquisitionNumber": 1,
    "AcquisitionTime": "11:17:19.687500",
    "BandwidthPerPixelPhaseEncode": 24.038,
    "BaseResolution": 64,
    "BodyPartExamined": "HEAD",
    "ConsistencyInfo": "N4_VD13A_LATEST_20120616",
    "ConversionSoftware": "dcm2niix",
    "ConversionSoftwareVersion": "v1.0.20181125  GCC6.3.0",
    "DerivedVendorReportedEchoSpacing": 0.000650012,
    "DeviceSerialNumber": "45250",
    "DwellTime": 4.6e-06,
    "EchoTime": 0.033,
    "EchoTrainLength": 64,
    "EffectiveEchoSpacing": 0.000650012,
    "FlipAngle": 90,
    "ImageOrientationPatientDICOM": [
      0.996346,
      -0.00105444,
      -0.0853988,
      -0.0121733,
      0.987961,
      -0.154224
    ],
    "ImageType": [
      "ORIGINAL",
      "PRIMARY",
      "M",
      "ND",
      "NORM",
      "MOSAIC"
    ],
    "ImagingFrequency": 123.214,
    "InPlanePhaseEncodingDirectionDICOM": "COL",
    "InstitutionAddress": "Kopernikusstr._26_Graz_Graz_AT_8010",
    "InstitutionName": "KFU",
    "InstitutionalDepartmentName": "Department",
    "MRAcquisitionType": "2D",
    "MagneticFieldStrength": 3,
    "Manufacturer": "Siemens",
    "ManufacturersModelName": "Skyra",
    "Modality": "MR",
    "PartialFourier": 1,
    "PatientPosition": "HFS",
    "PercentPhaseFOV": 100,
    "PhaseEncodingDirection": "j-",
    "PhaseEncodingSteps": 64,
    "PhaseResolution": 1,
    "PixelBandwidth": 1700,
    "ProcedureStepDescription": "KFU_Entw-Psy",
    "ProtocolName": "fMRI_3",
    "PulseSequenceDetails": "%SiemensSeq%_ep2d_pace",
    "ReceiveCoilActiveElements": "HE1-4",
    "ReceiveCoilName": "HeadNeck_20",
    "ReconMatrixPE": 64,
    "RepetitionTime": 2.34,
    "SAR": 0.164518,
    "ScanOptions": "FS",
    "ScanningSequence": "EP",
    "SequenceName": "_epfid2d1_64",
    "SequenceVariant": "SK",
    "SeriesDescription": "fMRI_3",
    "SeriesNumber": 8,
    "ShimSetting": [
      -1646,
      -3628,
      -4310,
      332,
      468,
      282,
      418,
      -194
    ],
    "SliceThickness": 3,
    "SliceTiming": [
      2.2525,
      2.1825,
      2.115,
      2.0475,
      1.98,
      1.91,
      1.8425,
      1.775,
      1.705,
      1.6375,
      1.57,
      1.5025,
      1.4325,
      1.365,
      1.2975,
      1.2275,
      1.16,
      1.0925,
      1.025,
      0.955,
      0.8875,
      0.82,
      0.75,
      0.6825,
      0.615,
      0.545,
      0.4775,
      0.41,
      0.3425,
      0.2725,
      0.205,
      0.1375,
      0.0675,
      0
    ],
    "SoftwareVersions": "syngo_MR_D13",
    "SpacingBetweenSlices": 3.3,
    "StationName": "FBMTMR1",
    "TaskName": "read",
    "TotalReadoutTime": 0.0409508,
    "TxRefAmp": 346.795,
    "dataset": "ds003126",
    "dcmmeta_affine": [
      [
        -2.9890389442443848,
        -0.0365198478102684,
        -0.2789599597454071,
        96.84815979003906
      ],
      [
        0.0031633235048502684,
        2.9638826847076416,
        -0.5105104446411133,
        -112.32736206054688
      ],
      [
        -0.2561964690685272,
        0.4626721143722534,
        3.248316526412964,
        -12.114497184753418
      ],
      [
        0.0,
        0.0,
        0.0,
        1.0
      ]
    ],
    "dcmmeta_reorient_transform": [
      [
        0.0,
        -1.0,
        0.0,
        63.0
      ],
      [
        1.0,
        0.0,
        0.0,
        0.0
      ],
      [
        0.0,
        0.0,
        1.0,
        0.0
      ],
      [
        0.0,
        0.0,
        0.0,
        1.0
      ]
    ],
    "dcmmeta_shape": [
      64,
      64,
      34,
      123
    ],
    "dcmmeta_slice_dim": 2,
    "dcmmeta_version": 0.6,
    "global": {
      "const": {
        "AcquisitionMatrix": [
          64,
          0,
          0,
          64
        ],
        "AngioFlag": "N",
        "BitsAllocated": 16,
        "BitsStored": 12,
        "BodyPartExamined": "HEAD",
        "Columns": 384,
        "EchoNumbers": 1,
        "EchoTime": 33.0,
        "EchoTrainLength": 64,
        "FlipAngle": 90.0,
        "HighBit": 11,
        "ImageOrientationPatient": [
          0.99634628962429,
          -0.0010544411897,
          -0.0853988249667,
          -0.0121732826488,
          0.98796090869847,
          -0.1542240385713
        ],
        "ImagePositionPatient": [
          -566.95045510817,
          -548.11235540284,
          132.05282062929
        ],
        "ImageType": [
          "ORIGINAL",
          "PRIMARY",
          "M",
          "ND",
          "NORM",
          "MOSAIC"
        ],
        "ImagedNucleus": "1H",
        "ImagingFrequency": 123.214488,
        "InPlanePhaseEncodingDirection": "COL",
        "MRAcquisitionType": "2D",
        "MagneticFieldStrength": 3.0,
        "Manufacturer": "SIEMENS",
        "ManufacturerModelName": "Skyra",
        "Modality": "MR",
        "NumberOfAverages": 1.0,
        "NumberOfPhaseEncodingSteps": 64,
        "PercentPhaseFieldOfView": 100.0,
        "PercentSampling": 100.0,
        "PerformedProcedureStepStartTime": "110001.047000",
        "PhotometricInterpretation": "MONOCHROME2",
        "PixelBandwidth": 1700.0,
        "PixelRepresentation": 0,
        "PixelSpacing": [
          3.0,
          3.0
        ],
        "ProtocolName": "fMRI_3",
        "RepetitionTime": 2340.0,
        "Rows": 384,
        "SAR": 0.1645182544281,
        "SamplesPerPixel": 1,
        "ScanOptions": "FS",
        "ScanningSequence": "EP",
        "SequenceName": "*epfid2d1_64",
        "SequenceVariant": "SK",
        "SeriesDescription": "fMRI_3",
        "SeriesNumber": 8,
        "SeriesTime": "111728.386000",
        "SliceLocation": -2.7346033061997,
        "SliceThickness": 3.0,
        "SmallestImagePixelValue": 0,
        "SoftwareVersions": "syngo MR D13",
        "SpacingBetweenSlices": 3.29999991187,
        "SpecificCharacterSet": "ISO_IR 100",
        "StudyID": "1",
        "StudyTime": "110000.997000",
        "TransmitCoilName": "Body",
        "VariableFlipAngleFlag": "N",
        "WindowCenterWidthExplanation": "Algo1",
        "dBdt": 0.0
      },
      "slices": {}
    },
    "modality": "bold",
    "run_id": 3,
    "session_id": "2",
    "subject_id": "047EPKL014020",
    "task_id": "read",
    "time": {
      "samples": {
        "AcquisitionNumber": [
          1,
          2,
          3,
          4,
          5,
          6,
          7,
          8,
          9,
          10,
          11,
          12,
          13,
          14,
          15,
          16,
          17,
          18,
          19,
          20,
          21,
          22,
          23,
          24,
          25,
          26,
          27,
          28,
          29,
          30,
          31,
          32,
          33,
          34,
          35,
          36,
          37,
          38,
          39,
          40,
          41,
          42,
          43,
          44,
          45,
          46,
          47,
          48,
          49,
          50,
          51,
          52,
          53,
          54,
          55,
          56,
          57,
          58,
          59,
          60,
          61,
          62,
          63,
          64,
          65,
          66,
          67,
          68,
          69,
          70,
          71,
          72,
          73,
          74,
          75,
          76,
          77,
          78,
          79,
          80,
          81,
          82,
          83,
          84,
          85,
          86,
          87,
          88,
          89,
          90,
          91,
          92,
          93,
          94,
          95,
          96,
          97,
          98,
          99,
          100,
          101,
          102,
          103,
          104,
          105,
          106,
          107,
          108,
          109,
          110,
          111,
          112,
          113,
          114,
          115,
          116,
          117,
          118,
          119,
          120,
          121,
          122,
          123
        ],
        "AcquisitionTime": [
          "111719.687500",
          "111722.027500",
          "111724.367500",
          "111726.707500",
          "111729.047500",
          "111731.387500",
          "111733.727500",
          "111736.067500",
          "111738.407500",
          "111740.747500",
          "111743.087500",
          "111745.427500",
          "111747.767500",
          "111750.107500",
          "111752.447500",
          "111754.787500",
          "111757.127500",
          "111759.467500",
          "111801.807500",
          "111804.147500",
          "111806.487500",
          "111808.827500",
          "111811.167500",
          "111813.507500",
          "111815.847500",
          "111818.187500",
          "111820.527500",
          "111822.867500",
          "111825.207500",
          "111827.547500",
          "111829.887500",
          "111832.227500",
          "111834.567500",
          "111836.907500",
          "111839.247500",
          "111841.587500",
          "111843.927500",
          "111846.267500",
          "111848.607500",
          "111850.947500",
          "111853.287500",
          "111855.627500",
          "111857.967500",
          "111900.307500",
          "111902.647500",
          "111904.987500",
          "111907.327500",
          "111909.667500",
          "111912.007500",
          "111914.347500",
          "111916.687500",
          "111919.027500",
          "111921.367500",
          "111923.707500",
          "111926.047500",
          "111928.387500",
          "111930.727500",
          "111933.067500",
          "111935.407500",
          "111937.747500",
          "111940.087500",
          "111942.427500",
          "111944.767500",
          "111947.107500",
          "111949.447500",
          "111951.787500",
          "111954.127500",
          "111956.467500",
          "111958.807500",
          "112001.147500",
          "112003.487500",
          "112005.827500",
          "112008.167500",
          "112010.507500",
          "112012.847500",
          "112015.187500",
          "112017.527500",
          "112019.867500",
          "112022.207500",
          "112024.547500",
          "112026.887500",
          "112029.227500",
          "112031.567500",
          "112033.907500",
          "112036.247500",
          "112038.587500",
          "112040.927500",
          "112043.267500",
          "112045.607500",
          "112047.947500",
          "112050.287500",
          "112052.627500",
          "112054.967500",
          "112057.307500",
          "112059.647500",
          "112101.987500",
          "112104.327500",
          "112106.667500",
          "112109.007500",
          "112111.347500",
          "112113.687500",
          "112116.027500",
          "112118.367500",
          "112120.707500",
          "112123.047500",
          "112125.387500",
          "112127.727500",
          "112130.067500",
          "112132.407500",
          "112134.747500",
          "112137.087500",
          "112139.427500",
          "112141.767500",
          "112144.107500",
          "112146.447500",
          "112148.787500",
          "112151.127500",
          "112153.467500",
          "112155.807500",
          "112158.147500",
          "112200.487500",
          "112202.827500",
          "112205.167500"
        ],
        "ContentTime": [
          "111728.390000",
          "111728.394000",
          "111728.397000",
          "111728.399000",
          "111828.383000",
          "111828.386000",
          "111828.389000",
          "111828.392000",
          "111828.394000",
          "111828.400000",
          "111828.403000",
          "111828.405000",
          "111828.408000",
          "111828.410000",
          "111828.413000",
          "111828.416000",
          "111828.419000",
          "111828.421000",
          "111828.424000",
          "111828.426000",
          "111828.429000",
          "111828.432000",
          "111828.434000",
          "111828.437000",
          "111828.439000",
          "111828.442000",
          "111828.444000",
          "111828.447000",
          "111828.452000",
          "111828.454000",
          "111928.384000",
          "111928.387000",
          "111928.390000",
          "111928.400000",
          "111928.403000",
          "111928.405000",
          "111928.408000",
          "111928.410000",
          "111928.413000",
          "111928.416000",
          "111928.418000",
          "111928.421000",
          "111928.423000",
          "111928.426000",
          "111928.428000",
          "111928.431000",
          "111928.434000",
          "111928.437000",
          "111928.439000",
          "111928.442000",
          "111928.449000",
          "111928.452000",
          "111928.454000",
          "111928.457000",
          "111928.459000",
          "112028.382000",
          "112028.386000",
          "112028.388000",
          "112028.391000",
          "112028.394000",
          "112028.401000",
          "112028.404000",
          "112028.407000",
          "112028.409000",
          "112028.412000",
          "112028.415000",
          "112028.418000",
          "112028.420000",
          "112028.423000",
          "112028.426000",
          "112028.428000",
          "112028.431000",
          "112028.434000",
          "112028.437000",
          "112028.440000",
          "112028.442000",
          "112028.445000",
          "112028.447000",
          "112028.450000",
          "112028.452000",
          "112028.455000",
          "112128.384000",
          "112128.387000",
          "112128.390000",
          "112128.392000",
          "112128.395000",
          "112128.402000",
          "112128.405000",
          "112128.408000",
          "112128.411000",
          "112128.414000",
          "112128.417000",
          "112128.419000",
          "112128.422000",
          "112128.425000",
          "112128.437000",
          "112128.439000",
          "112128.442000",
          "112128.445000",
          "112128.447000",
          "112128.450000",
          "112128.452000",
          "112128.455000",
          "112128.457000",
          "112128.460000",
          "112128.463000",
          "112128.466000",
          "112207.650000",
          "112207.654000",
          "112207.657000",
          "112207.660000",
          "112207.662000",
          "112207.666000",
          "112207.669000",
          "112207.672000",
          "112207.677000",
          "112207.681000",
          "112207.684000",
          "112207.687000",
          "112207.692000",
          "112207.696000",
          "112207.699000",
          "112207.702000"
        ],
        "InstanceCreationTime": [
          "111728.390000",
          "111728.394000",
          "111728.397000",
          "111728.399000",
          "111828.383000",
          "111828.386000",
          "111828.389000",
          "111828.392000",
          "111828.394000",
          "111828.400000",
          "111828.403000",
          "111828.405000",
          "111828.408000",
          "111828.410000",
          "111828.413000",
          "111828.416000",
          "111828.419000",
          "111828.421000",
          "111828.424000",
          "111828.426000",
          "111828.429000",
          "111828.432000",
          "111828.434000",
          "111828.437000",
          "111828.439000",
          "111828.442000",
          "111828.444000",
          "111828.447000",
          "111828.452000",
          "111828.454000",
          "111928.384000",
          "111928.387000",
          "111928.390000",
          "111928.400000",
          "111928.403000",
          "111928.405000",
          "111928.408000",
          "111928.410000",
          "111928.413000",
          "111928.416000",
          "111928.418000",
          "111928.421000",
          "111928.423000",
          "111928.426000",
          "111928.428000",
          "111928.431000",
          "111928.434000",
          "111928.437000",
          "111928.439000",
          "111928.442000",
          "111928.449000",
          "111928.452000",
          "111928.454000",
          "111928.457000",
          "111928.459000",
          "112028.382000",
          "112028.386000",
          "112028.388000",
          "112028.391000",
          "112028.394000",
          "112028.401000",
          "112028.404000",
          "112028.407000",
          "112028.409000",
          "112028.412000",
          "112028.415000",
          "112028.418000",
          "112028.420000",
          "112028.423000",
          "112028.426000",
          "112028.428000",
          "112028.431000",
          "112028.434000",
          "112028.437000",
          "112028.440000",
          "112028.442000",
          "112028.445000",
          "112028.447000",
          "112028.450000",
          "112028.452000",
          "112028.455000",
          "112128.384000",
          "112128.387000",
          "112128.390000",
          "112128.392000",
          "112128.395000",
          "112128.402000",
          "112128.405000",
          "112128.408000",
          "112128.411000",
          "112128.414000",
          "112128.417000",
          "112128.419000",
          "112128.422000",
          "112128.425000",
          "112128.437000",
          "112128.439000",
          "112128.442000",
          "112128.445000",
          "112128.447000",
          "112128.450000",
          "112128.452000",
          "112128.455000",
          "112128.457000",
          "112128.460000",
          "112128.463000",
          "112128.466000",
          "112207.650000",
          "112207.654000",
          "112207.657000",
          "112207.660000",
          "112207.662000",
          "112207.666000",
          "112207.669000",
          "112207.672000",
          "112207.677000",
          "112207.681000",
          "112207.684000",
          "112207.687000",
          "112207.692000",
          "112207.696000",
          "112207.699000",
          "112207.702000"
        ],
        "InstanceNumber": [
          1,
          2,
          3,
          4,
          5,
          6,
          7,
          8,
          9,
          10,
          11,
          12,
          13,
          14,
          15,
          16,
          17,
          18,
          19,
          20,
          21,
          22,
          23,
          24,
          25,
          26,
          27,
          28,
          29,
          30,
          31,
          32,
          33,
          34,
          35,
          36,
          37,
          38,
          39,
          40,
          41,
          42,
          43,
          44,
          45,
          46,
          47,
          48,
          49,
          50,
          51,
          52,
          53,
          54,
          55,
          56,
          57,
          58,
          59,
          60,
          61,
          62,
          63,
          64,
          65,
          66,
          67,
          68,
          69,
          70,
          71,
          72,
          73,
          74,
          75,
          76,
          77,
          78,
          79,
          80,
          81,
          82,
          83,
          84,
          85,
          86,
          87,
          88,
          89,
          90,
          91,
          92,
          93,
          94,
          95,
          96,
          97,
          98,
          99,
          100,
          101,
          102,
          103,
          104,
          105,
          106,
          107,
          108,
          109,
          110,
          111,
          112,
          113,
          114,
          115,
          116,
          117,
          118,
          119,
          120,
          121,
          122,
          123
        ],
        "LargestImagePixelValue": [
          2396,
          2116,
          2341,
          2106,
          2091,
          2268,
          2917,
          2006,
          2719,
          2084,
          2081,
          2097,
          2046,
          2038,
          2426,
          2132,
          2013,
          2189,
          2073,
          2073,
          2030,
          2032,
          2016,
          2106,
          2065,
          2102,
          2109,
          2688,
          2385,
          2095,
          2429,
          2519,
          2104,
          2080,
          2099,
          2053,
          2003,
          2770,
          2065,
          2544,
          2114,
          2131,
          2118,
          2208,
          2073,
          2067,
          2535,
          2370,
          2023,
          2059,
          2048,
          2104,
          2075,
          2037,
          2298,
          2041,
          3010,
          2014,
          2086,
          2062,
          2143,
          2031,
          2565,
          2075,
          2193,
          2558,
          2336,
          2084,
          2075,
          2043,
          2386,
          2055,
          2132,
          2298,
          1997,
          2660,
          2176,
          1988,
          2106,
          2287,
          2202,
          2073,
          2271,
          2085,
          2081,
          2147,
          2417,
          2068,
          2257,
          2427,
          2744,
          2087,
          2035,
          2075,
          2074,
          2050,
          2254,
          2481,
          2017,
          2039,
          2165,
          2008,
          2115,
          2053,
          2186,
          2113,
          2037,
          2096,
          2120,
          2212,
          2077,
          2107,
          2191,
          2061,
          2162,
          2225,
          2015,
          2531,
          2010,
          1973,
          2089,
          2056,
          2081
        ],
        "WindowCenter": [
          861.0,
          856.0,
          856.0,
          857.0,
          862.0,
          860.0,
          858.0,
          855.0,
          856.0,
          857.0,
          855.0,
          858.0,
          859.0,
          858.0,
          860.0,
          858.0,
          857.0,
          856.0,
          857.0,
          857.0,
          858.0,
          859.0,
          855.0,
          859.0,
          859.0,
          860.0,
          859.0,
          857.0,
          856.0,
          858.0,
          859.0,
          857.0,
          856.0,
          860.0,
          860.0,
          859.0,
          859.0,
          860.0,
          860.0,
          857.0,
          857.0,
          860.0,
          859.0,
          859.0,
          859.0,
          859.0,
          859.0,
          857.0,
          857.0,
          859.0,
          859.0,
          859.0,
          859.0,
          859.0,
          860.0,
          858.0,
          859.0,
          858.0,
          857.0,
          858.0,
          860.0,
          860.0,
          859.0,
          858.0,
          862.0,
          861.0,
          858.0,
          857.0,
          858.0,
          859.0,
          858.0,
          860.0,
          862.0,
          862.0,
          860.0,
          860.0,
          857.0,
          856.0,
          858.0,
          861.0,
          861.0,
          859.0,
          860.0,
          860.0,
          858.0,
          861.0,
          860.0,
          860.0,
          863.0,
          863.0,
          860.0,
          861.0,
          859.0,
          859.0,
          860.0,
          861.0,
          860.0,
          860.0,
          859.0,
          860.0,
          861.0,
          858.0,
          859.0,
          861.0,
          860.0,
          859.0,
          859.0,
          860.0,
          860.0,
          863.0,
          861.0,
          861.0,
          863.0,
          861.0,
          860.0,
          861.0,
          860.0,
          863.0,
          860.0,
          860.0,
          862.0,
          862.0,
          862.0
        ],
        "WindowWidth": [
          1821.0,
          1809.0,
          1809.0,
          1812.0,
          1822.0,
          1819.0,
          1815.0,
          1808.0,
          1811.0,
          1812.0,
          1809.0,
          1815.0,
          1815.0,
          1813.0,
          1819.0,
          1815.0,
          1811.0,
          1811.0,
          1812.0,
          1812.0,
          1814.0,
          1814.0,
          1806.0,
          1818.0,
          1818.0,
          1820.0,
          1818.0,
          1815.0,
          1813.0,
          1816.0,
          1819.0,
          1813.0,
          1810.0,
          1819.0,
          1818.0,
          1817.0,
          1817.0,
          1821.0,
          1821.0,
          1816.0,
          1812.0,
          1818.0,
          1816.0,
          1816.0,
          1816.0,
          1816.0,
          1819.0,
          1813.0,
          1810.0,
          1817.0,
          1815.0,
          1817.0,
          1815.0,
          1816.0,
          1819.0,
          1816.0,
          1818.0,
          1814.0,
          1814.0,
          1815.0,
          1819.0,
          1819.0,
          1819.0,
          1816.0,
          1823.0,
          1825.0,
          1816.0,
          1814.0,
          1816.0,
          1816.0,
          1817.0,
          1819.0,
          1825.0,
          1824.0,
          1819.0,
          1821.0,
          1812.0,
          1811.0,
          1816.0,
          1824.0,
          1820.0,
          1816.0,
          1819.0,
          1818.0,
          1815.0,
          1823.0,
          1823.0,
          1820.0,
          1829.0,
          1827.0,
          1821.0,
          1822.0,
          1817.0,
          1818.0,
          1821.0,
          1822.0,
          1822.0,
          1819.0,
          1818.0,
          1820.0,
          1821.0,
          1815.0,
          1818.0,
          1822.0,
          1819.0,
          1817.0,
          1816.0,
          1821.0,
          1822.0,
          1827.0,
          1821.0,
          1824.0,
          1826.0,
          1822.0,
          1821.0,
          1822.0,
          1820.0,
          1828.0,
          1820.0,
          1821.0,
          1825.0,
          1826.0,
          1825.0
        ]
      },
      "slices": {}
    }
  },
  "dummy_trs": 0,
  "dvars_nstd": 33.434115363114756,
  "dvars_std": 1.323593374180328,
  "dvars_vstd": 1.0315593381967212,
  "efc": 0.5950484114563315,
  "fber": 1730.4793701171875,
  "fd_mean": 0.30369770601128215,
  "fd_num": 89,
  "fd_perc": 72.35772357723577,
  "fwhm_avg": 1.6543595022588236,
  "fwhm_x": 1.5492100000000002,
  "fwhm_y": 1.89632,
  "fwhm_z": 1.5175485067764702,
  "gcor": 0.0389167,
  "gsr_x": -0.010902626439929008,
  "gsr_y": 0.04936669394373894,
  "provenance": {
    "md5sum": "0922f1f2811472a8328c76a990686837",
    "settings": {
      "fd_thres": 0.2,
      "testing": false
    },
    "software": "mriqc",
    "version": "22.0.1",
    "webapi_port": null,
    "webapi_url": "https://mriqc.nimh.nih.gov/api/v1"
  },
  "size_t": 123,
  "size_x": 64,
  "size_y": 64,
  "size_z": 34,
  "snr": 6.795122146458267,
  "spacing_tr": 2.3399999141693115,
  "spacing_x": 3.0,
  "spacing_y": 3.0,
  "spacing_z": 3.299999952316284,
  "summary_bg_k": 70.63594886585264,
  "summary_bg_mad": 9.3657048351534,
  "summary_bg_mean": 36.950714111328125,
  "summary_bg_median": 23.203250885009766,
  "summary_bg_n": 67391.0,
  "summary_bg_p05": 13.252032279968262,
  "summary_bg_p95": 101.0691032409668,
  "summary_bg_stdv": 53.65916061401367,
  "summary_fg_k": 3.9138913907247526,
  "summary_fg_mad": 127.63635989854419,
  "summary_fg_mean": 996.52587890625,
  "summary_fg_median": 990.4714965820312,
  "summary_fg_n": 38170.0,
  "summary_fg_p05": 798.091845703125,
  "summary_fg_p95": 1215.1633483886717,
  "summary_fg_stdv": 145.76022338867188,
  "tsnr": 64.07708465564065
}