{
  "aor": 0.0026893650793650787,
  "aqi": 0.020291682539682544,
  "bids_meta": {
    "AcquisitionMatrixPE": 64,
    "AcquisitionNumber": 1,
    "AcquisitionTime": "09:45:33.950000",
    "BandwidthPerPixelPhaseEncode": 24.038,
    "BaseResolution": 64,
    "BodyPartExamined": "HEAD",
    "ConsistencyInfo": "N4_VD13A_LATEST_20120616",
    "ConversionSoftware": "dcm2niix",
    "ConversionSoftwareVersion": "v1.0.20181125  GCC6.3.0",
    "DerivedVendorReportedEchoSpacing": 0.000650012,
    "DeviceSerialNumber": "45250",
    "DwellTime": 4.6e-06,
    "EchoTime": 0.033,
    "EchoTrainLength": 64,
    "EffectiveEchoSpacing": 0.000650012,
    "FlipAngle": 90,
    "ImageOrientationPatientDICOM": [
      0.997787,
      -0.000352219,
      -0.0664859,
      -0.0139326,
      0.976675,
      -0.214268
    ],
    "ImageType": [
      "ORIGINAL",
      "PRIMARY",
      "M",
      "ND",
      "NORM",
      "MOSAIC"
    ],
    "ImagingFrequency": 123.214,
    "InPlanePhaseEncodingDirectionDICOM": "COL",
    "InstitutionAddress": "Kopernikusstr._26_Graz_Graz_AT_8010",
    "InstitutionName": "KFU",
    "InstitutionalDepartmentName": "Department",
    "MRAcquisitionType": "2D",
    "MagneticFieldStrength": 3,
    "Manufacturer": "Siemens",
    "ManufacturersModelName": "Skyra",
    "Modality": "MR",
    "PartialFourier": 1,
    "PatientPosition": "HFS",
    "PercentPhaseFOV": 100,
    "PhaseEncodingDirection": "j-",
    "PhaseEncodingSteps": 64,
    "PhaseResolution": 1,
    "PixelBandwidth": 1700,
    "ProcedureStepDescription": "KFU_Entw-Psy",
    "ProtocolName": "fMRI_1",
    "PulseSequenceDetails": "%SiemensSeq%_ep2d_pace",
    "ReceiveCoilActiveElements": "HE1-4",
    "ReceiveCoilName": "HeadNeck_20",
    "ReconMatrixPE": 64,
    "RepetitionTime": 2.34,
    "SAR": 0.174676,
    "ScanOptions": "FS",
    "ScanningSequence": "EP",
    "SequenceName": "_epfid2d1_64",
    "SequenceVariant": "SK",
    "SeriesDescription": "fMRI_1",
    "SeriesNumber": 2,
    "ShimSetting": [
      -1593,
      -3640,
      -4223,
      470,
      276,
      353,
      391,
      -204
    ],
    "SliceThickness": 3,
    "SliceTiming": [
      2.2525,
      2.185,
      2.115,
      2.0475,
      1.98,
      1.9125,
      1.8425,
      1.775,
      1.7075,
      1.6375,
      1.57,
      1.5025,
      1.4325,
      1.365,
      1.2975,
      1.23,
      1.16,
      1.0925,
      1.025,
      0.955,
      0.8875,
      0.82,
      0.7525,
      0.6825,
      0.615,
      0.5475,
      0.4775,
      0.41,
      0.3425,
      0.275,
      0.205,
      0.1375,
      0.07,
      0
    ],
    "SoftwareVersions": "syngo_MR_D13",
    "SpacingBetweenSlices": 3.3,
    "StationName": "FBMTMR1",
    "TaskName": "read",
    "TotalReadoutTime": 0.0409508,
    "TxRefAmp": 329.743,
    "dataset": "ds003126",
    "dcmmeta_affine": [
      [
        -2.9933619499206543,
        -0.041797935962677,
        -0.2145349383354187,
        94.77985382080078
      ],
      [
        0.0010566565906628966,
        2.9300262928009033,
        -0.7085779309272766,
        -105.61937713623047
      ],
      [
        -0.19945761561393738,
        0.6428050994873047,
        3.215881109237671,
        -13.001372337341309
      ],
      [
        0.0,
        0.0,
        0.0,
        1.0
      ]
    ],
    "dcmmeta_reorient_transform": [
      [
        0.0,
        -1.0,
        0.0,
        63.0
      ],
      [
        1.0,
        0.0,
        0.0,
        0.0
      ],
      [
        0.0,
        0.0,
        1.0,
        0.0
      ],
      [
        0.0,
        0.0,
        0.0,
        1.0
      ]
    ],
    "dcmmeta_shape": [
      64,
      64,
      34,
      126
    ],
    "dcmmeta_slice_dim": 2,
    "dcmmeta_version": 0.6,
    "global": {
      "const": {
        "AcquisitionMatrix": [
          64,
          0,
          0,
          64
        ],
        "AngioFlag": "N",
        "BitsAllocated": 16,
        "BitsStored": 12,
        "BodyPartExamined": "HEAD",
        "Columns": 384,
        "EchoNumbers": 1,
        "EchoTime": 33.0,
        "EchoTrainLength": 64,
        "FlipAngle": 90.0,
        "HighBit": 11,
        "ImageOrientationPatient": [
          0.9977873043408,
          -0.0003522188541,
          -0.0664858724708,
          -0.0139326448307,
          0.97667545596312,
          -0.214268371738
        ],
        "ImagePositionPatient": [
          -564.39682280301,
          -547.60744004505,
          162.25738724781
        ],
        "ImageType": [
          "ORIGINAL",
          "PRIMARY",
          "M",
          "ND",
          "NORM",
          "MOSAIC"
        ],
        "ImagedNucleus": "1H",
        "ImagingFrequency": 123.214417,
        "InPlanePhaseEncodingDirection": "COL",
        "MRAcquisitionType": "2D",
        "MagneticFieldStrength": 3.0,
        "Manufacturer": "SIEMENS",
        "ManufacturerModelName": "Skyra",
        "Modality": "MR",
        "NumberOfAverages": 1.0,
        "NumberOfPhaseEncodingSteps": 64,
        "PercentPhaseFieldOfView": 100.0,
        "PercentSampling": 100.0,
        "PerformedProcedureStepStartTime": "093947.287000",
        "PhotometricInterpretation": "MONOCHROME2",
        "PixelBandwidth": 1700.0,
        "PixelRepresentation": 0,
        "PixelSpacing": [
          3.0,
          3.0
        ],
        "ProtocolName": "fMRI_1",
        "RepetitionTime": 2340.0,
        "Rows": 384,
        "SAR": 0.17467611109848,
        "SamplesPerPixel": 1,
        "ScanOptions": "FS",
        "ScanningSequence": "EP",
        "SequenceName": "*epfid2d1_64",
        "SequenceVariant": "SK",
        "SeriesDescription": "fMRI_1",
        "SeriesNumber": 2,
        "SeriesTime": "094623.201000",
        "SliceLocation": 3.8469994254627,
        "SliceThickness": 3.0,
        "SmallestImagePixelValue": 0,
        "SoftwareVersions": "syngo MR D13",
        "SpacingBetweenSlices": 3.2999999697897,
        "SpecificCharacterSet": "ISO_IR 100",
        "StudyID": "1",
        "StudyTime": "093947.231000",
        "TransmitCoilName": "Body",
        "VariableFlipAngleFlag": "N",
        "WindowCenterWidthExplanation": "Algo1",
        "dBdt": 0.0
      },
      "slices": {}
    },
    "modality": "bold",
    "run_id": 1,
    "session_id": "2",
    "subject_id": "047EPKL013019",
    "task_id": "read",
    "time": {
      "samples": {
        "AcquisitionNumber": [
          1,
          2,
          3,
          4,
          5,
          6,
          7,
          8,
          9,
          10,
          11,
          12,
          13,
          14,
          15,
          16,
          17,
          18,
          19,
          20,
          21,
          22,
          23,
          24,
          25,
          26,
          27,
          28,
          29,
          30,
          31,
          32,
          33,
          34,
          35,
          36,
          37,
          38,
          39,
          40,
          41,
          42,
          43,
          44,
          45,
          46,
          47,
          48,
          49,
          50,
          51,
          52,
          53,
          54,
          55,
          56,
          57,
          58,
          59,
          60,
          61,
          62,
          63,
          64,
          65,
          66,
          67,
          68,
          69,
          70,
          71,
          72,
          73,
          74,
          75,
          76,
          77,
          78,
          79,
          80,
          81,
          82,
          83,
          84,
          85,
          86,
          87,
          88,
          89,
          90,
          91,
          92,
          93,
          94,
          95,
          96,
          97,
          98,
          99,
          100,
          101,
          102,
          103,
          104,
          105,
          106,
          107,
          108,
          109,
          110,
          111,
          112,
          113,
          114,
          115,
          116,
          117,
          118,
          119,
          120,
          121,
          122,
          123,
          124,
          125,
          126
        ],
        "AcquisitionTime": [
          "094533.950000",
          "094536.290000",
          "094538.630000",
          "094540.970000",
          "094543.310000",
          "094545.650000",
          "094547.990000",
          "094550.330000",
          "094552.670000",
          "094555.010000",
          "094557.350000",
          "094559.690000",
          "094602.030000",
          "094604.370000",
          "094606.710000",
          "094609.050000",
          "094611.390000",
          "094613.730000",
          "094616.070000",
          "094618.410000",
          "094620.750000",
          "094623.090000",
          "094625.430000",
          "094627.770000",
          "094630.110000",
          "094632.450000",
          "094634.790000",
          "094637.130000",
          "094639.470000",
          "094641.810000",
          "094644.150000",
          "094646.490000",
          "094648.830000",
          "094651.170000",
          "094653.510000",
          "094655.850000",
          "094658.190000",
          "094700.530000",
          "094702.870000",
          "094705.210000",
          "094707.550000",
          "094709.890000",
          "094712.230000",
          "094714.570000",
          "094716.910000",
          "094719.250000",
          "094721.590000",
          "094723.930000",
          "094726.270000",
          "094728.610000",
          "094730.950000",
          "094733.290000",
          "094735.630000",
          "094737.970000",
          "094740.310000",
          "094742.650000",
          "094744.990000",
          "094747.330000",
          "094749.670000",
          "094752.010000",
          "094754.350000",
          "094756.690000",
          "094759.030000",
          "094801.370000",
          "094803.710000",
          "094806.050000",
          "094808.390000",
          "094810.730000",
          "094813.070000",
          "094815.410000",
          "094817.750000",
          "094820.090000",
          "094822.430000",
          "094824.770000",
          "094827.110000",
          "094829.450000",
          "094831.790000",
          "094834.130000",
          "094836.470000",
          "094838.810000",
          "094841.150000",
          "094843.490000",
          "094845.830000",
          "094848.170000",
          "094850.510000",
          "094852.850000",
          "094855.190000",
          "094857.530000",
          "094859.870000",
          "094902.210000",
          "094904.550000",
          "094906.890000",
          "094909.230000",
          "094911.570000",
          "094913.910000",
          "094916.250000",
          "094918.590000",
          "094920.930000",
          "094923.270000",
          "094925.610000",
          "094927.950000",
          "094930.290000",
          "094932.630000",
          "094934.970000",
          "094937.310000",
          "094939.650000",
          "094941.990000",
          "094944.330000",
          "094946.670000",
          "094949.010000",
          "094951.350000",
          "094953.690000",
          "094956.030000",
          "094958.370000",
          "095000.710000",
          "095003.050000",
          "095005.390000",
          "095007.730000",
          "095010.070000",
          "095012.410000",
          "095014.750000",
          "095017.090000",
          "095019.430000",
          "095021.770000",
          "095024.110000",
          "095026.450000"
        ],
        "ContentTime": [
          "094623.206000",
          "094623.210000",
          "094623.212000",
          "094623.215000",
          "094623.217000",
          "094623.229000",
          "094623.232000",
          "094623.235000",
          "094623.237000",
          "094623.240000",
          "094623.242000",
          "094623.245000",
          "094623.247000",
          "094623.250000",
          "094623.256000",
          "094623.258000",
          "094623.261000",
          "094623.263000",
          "094623.266000",
          "094623.269000",
          "094623.271000",
          "094723.202000",
          "094723.205000",
          "094723.208000",
          "094723.220000",
          "094723.222000",
          "094723.225000",
          "094723.227000",
          "094723.230000",
          "094723.233000",
          "094723.235000",
          "094723.238000",
          "094723.240000",
          "094723.243000",
          "094723.245000",
          "094723.248000",
          "094723.251000",
          "094723.253000",
          "094723.256000",
          "094723.259000",
          "094723.261000",
          "094723.264000",
          "094723.266000",
          "094723.269000",
          "094723.271000",
          "094723.274000",
          "094723.277000",
          "094823.202000",
          "094823.205000",
          "094823.208000",
          "094823.210000",
          "094823.213000",
          "094823.216000",
          "094823.218000",
          "094823.221000",
          "094823.224000",
          "094823.226000",
          "094823.229000",
          "094823.232000",
          "094823.234000",
          "094823.237000",
          "094823.239000",
          "094823.242000",
          "094823.244000",
          "094823.247000",
          "094823.249000",
          "094823.252000",
          "094823.255000",
          "094823.257000",
          "094823.260000",
          "094823.263000",
          "094823.265000",
          "094823.268000",
          "094923.203000",
          "094923.206000",
          "094923.208000",
          "094923.211000",
          "094923.213000",
          "094923.216000",
          "094923.219000",
          "094923.221000",
          "094923.224000",
          "094923.226000",
          "094923.229000",
          "094923.231000",
          "094923.234000",
          "094923.237000",
          "094923.239000",
          "094923.242000",
          "094923.245000",
          "094923.247000",
          "094923.250000",
          "094923.253000",
          "094923.256000",
          "094923.259000",
          "094923.261000",
          "094923.264000",
          "094923.267000",
          "095023.202000",
          "095023.205000",
          "095023.208000",
          "095023.211000",
          "095023.213000",
          "095023.216000",
          "095023.218000",
          "095023.221000",
          "095023.224000",
          "095023.226000",
          "095023.229000",
          "095023.232000",
          "095023.234000",
          "095023.237000",
          "095023.239000",
          "095023.242000",
          "095023.245000",
          "095023.247000",
          "095023.250000",
          "095023.253000",
          "095023.255000",
          "095023.258000",
          "095023.261000",
          "095023.263000",
          "095023.266000",
          "095023.269000",
          "095028.063000",
          "095028.066000"
        ],
        "InstanceCreationTime": [
          "094623.206000",
          "094623.210000",
          "094623.212000",
          "094623.215000",
          "094623.217000",
          "094623.229000",
          "094623.232000",
          "094623.235000",
          "094623.237000",
          "094623.240000",
          "094623.242000",
          "094623.245000",
          "094623.247000",
          "094623.250000",
          "094623.256000",
          "094623.258000",
          "094623.261000",
          "094623.263000",
          "094623.266000",
          "094623.269000",
          "094623.271000",
          "094723.202000",
          "094723.205000",
          "094723.208000",
          "094723.220000",
          "094723.222000",
          "094723.225000",
          "094723.227000",
          "094723.230000",
          "094723.233000",
          "094723.235000",
          "094723.238000",
          "094723.240000",
          "094723.243000",
          "094723.245000",
          "094723.248000",
          "094723.251000",
          "094723.253000",
          "094723.256000",
          "094723.259000",
          "094723.261000",
          "094723.264000",
          "094723.266000",
          "094723.269000",
          "094723.271000",
          "094723.274000",
          "094723.277000",
          "094823.202000",
          "094823.205000",
          "094823.208000",
          "094823.210000",
          "094823.213000",
          "094823.216000",
          "094823.218000",
          "094823.221000",
          "094823.224000",
          "094823.226000",
          "094823.229000",
          "094823.232000",
          "094823.234000",
          "094823.237000",
          "094823.239000",
          "094823.242000",
          "094823.244000",
          "094823.247000",
          "094823.249000",
          "094823.252000",
          "094823.255000",
          "094823.257000",
          "094823.260000",
          "094823.263000",
          "094823.265000",
          "094823.268000",
          "094923.203000",
          "094923.206000",
          "094923.208000",
          "094923.211000",
          "094923.213000",
          "094923.216000",
          "094923.219000",
          "094923.221000",
          "094923.224000",
          "094923.226000",
          "094923.229000",
          "094923.231000",
          "094923.234000",
          "094923.237000",
          "094923.239000",
          "094923.242000",
          "094923.245000",
          "094923.247000",
          "094923.250000",
          "094923.253000",
          "094923.256000",
          "094923.259000",
          "094923.261000",
          "094923.264000",
          "094923.267000",
          "095023.202000",
          "095023.205000",
          "095023.208000",
          "095023.211000",
          "095023.213000",
          "095023.216000",
          "095023.218000",
          "095023.221000",
          "095023.224000",
          "095023.226000",
          "095023.229000",
          "095023.232000",
          "095023.234000",
          "095023.237000",
          "095023.239000",
          "095023.242000",
          "095023.245000",
          "095023.247000",
          "095023.250000",
          "095023.253000",
          "095023.255000",
          "095023.258000",
          "095023.261000",
          "095023.263000",
          "095023.266000",
          "095023.269000",
          "095028.063000",
          "095028.066000"
        ],
        "InstanceNumber": [
          1,
          2,
          3,
          4,
          5,
          6,
          7,
          8,
          9,
          10,
          11,
          12,
          13,
          14,
          15,
          16,
          17,
          18,
          19,
          20,
          21,
          22,
          23,
          24,
          25,
          26,
          27,
          28,
          29,
          30,
          31,
          32,
          33,
          34,
          35,
          36,
          37,
          38,
          39,
          40,
          41,
          42,
          43,
          44,
          45,
          46,
          47,
          48,
          49,
          50,
          51,
          52,
          53,
          54,
          55,
          56,
          57,
          58,
          59,
          60,
          61,
          62,
          63,
          64,
          65,
          66,
          67,
          68,
          69,
          70,
          71,
          72,
          73,
          74,
          75,
          76,
          77,
          78,
          79,
          80,
          81,
          82,
          83,
          84,
          85,
          86,
          87,
          88,
          89,
          90,
          91,
          92,
          93,
          94,
          95,
          96,
          97,
          98,
          99,
          100,
          101,
          102,
          103,
          104,
          105,
          106,
          107,
          108,
          109,
          110,
          111,
          112,
          113,
          114,
          115,
          116,
          117,
          118,
          119,
          120,
          121,
          122,
          123,
          124,
          125,
          126
        ],
        "LargestImagePixelValue": [
          3374,
          3351,
          3261,
          3337,
          4095,
          2724,
          3095,
          3501,
          3170,
          3019,
          2674,
          2816,
          2864,
          3070,
          3038,
          2852,
          3472,
          4050,
          3205,
          2858,
          2880,
          2740,
          3166,
          3256,
          3331,
          3306,
          2985,
          3118,
          2978,
          3183,
          2905,
          3032,
          2757,
          3502,
          3024,
          2771,
          2797,
          3475,
          2952,
          2702,
          3277,
          2838,
          3065,
          3639,
          2666,
          3007,
          3313,
          3086,
          3282,
          2796,
          2695,
          3270,
          3090,
          3379,
          2732,
          3344,
          3313,
          2807,
          2957,
          3366,
          3270,
          3318,
          3803,
          2766,
          2762,
          2632,
          2983,
          3045,
          3061,
          3271,
          3448,
          3046,
          2960,
          2762,
          3619,
          2904,
          2947,
          3027,
          3403,
          3076,
          2737,
          3227,
          2836,
          3229,
          2927,
          2728,
          3809,
          2901,
          3879,
          2726,
          2738,
          2746,
          3402,
          3171,
          3718,
          4012,
          3013,
          3076,
          3356,
          3205,
          2777,
          2909,
          3349,
          3529,
          3257,
          3202,
          3281,
          2974,
          2885,
          3026,
          3050,
          3368,
          3114,
          3016,
          2931,
          2986,
          3704,
          3653,
          3240,
          3148,
          2947,
          3488,
          2869,
          2885,
          2904,
          2776
        ],
        "WindowCenter": [
          834.0,
          834.0,
          834.0,
          833.0,
          834.0,
          831.0,
          832.0,
          833.0,
          831.0,
          834.0,
          834.0,
          833.0,
          834.0,
          835.0,
          834.0,
          834.0,
          835.0,
          838.0,
          833.0,
          835.0,
          834.0,
          835.0,
          836.0,
          836.0,
          835.0,
          834.0,
          835.0,
          835.0,
          835.0,
          837.0,
          834.0,
          839.0,
          832.0,
          835.0,
          831.0,
          833.0,
          833.0,
          833.0,
          834.0,
          834.0,
          835.0,
          836.0,
          834.0,
          838.0,
          835.0,
          837.0,
          837.0,
          834.0,
          834.0,
          834.0,
          834.0,
          836.0,
          836.0,
          836.0,
          834.0,
          836.0,
          835.0,
          836.0,
          836.0,
          837.0,
          835.0,
          835.0,
          836.0,
          834.0,
          834.0,
          832.0,
          835.0,
          835.0,
          834.0,
          835.0,
          835.0,
          834.0,
          834.0,
          834.0,
          834.0,
          836.0,
          834.0,
          835.0,
          835.0,
          836.0,
          835.0,
          839.0,
          836.0,
          837.0,
          837.0,
          839.0,
          839.0,
          838.0,
          839.0,
          834.0,
          833.0,
          839.0,
          839.0,
          839.0,
          835.0,
          833.0,
          829.0,
          831.0,
          836.0,
          837.0,
          836.0,
          836.0,
          836.0,
          836.0,
          831.0,
          834.0,
          836.0,
          836.0,
          835.0,
          838.0,
          838.0,
          839.0,
          837.0,
          840.0,
          838.0,
          839.0,
          841.0,
          838.0,
          837.0,
          841.0,
          839.0,
          840.0,
          838.0,
          838.0,
          837.0,
          838.0
        ],
        "WindowWidth": [
          1767.0,
          1767.0,
          1765.0,
          1764.0,
          1767.0,
          1756.0,
          1761.0,
          1763.0,
          1759.0,
          1770.0,
          1764.0,
          1762.0,
          1767.0,
          1768.0,
          1766.0,
          1765.0,
          1772.0,
          1775.0,
          1763.0,
          1768.0,
          1767.0,
          1769.0,
          1771.0,
          1768.0,
          1767.0,
          1770.0,
          1768.0,
          1769.0,
          1767.0,
          1772.0,
          1764.0,
          1781.0,
          1764.0,
          1768.0,
          1756.0,
          1764.0,
          1763.0,
          1764.0,
          1769.0,
          1764.0,
          1766.0,
          1773.0,
          1765.0,
          1777.0,
          1766.0,
          1775.0,
          1774.0,
          1764.0,
          1768.0,
          1764.0,
          1765.0,
          1774.0,
          1771.0,
          1773.0,
          1766.0,
          1775.0,
          1767.0,
          1773.0,
          1773.0,
          1773.0,
          1768.0,
          1770.0,
          1770.0,
          1768.0,
          1765.0,
          1763.0,
          1768.0,
          1767.0,
          1765.0,
          1767.0,
          1770.0,
          1766.0,
          1765.0,
          1765.0,
          1772.0,
          1770.0,
          1765.0,
          1772.0,
          1770.0,
          1771.0,
          1768.0,
          1778.0,
          1771.0,
          1775.0,
          1775.0,
          1781.0,
          1779.0,
          1774.0,
          1780.0,
          1766.0,
          1764.0,
          1778.0,
          1782.0,
          1778.0,
          1769.0,
          1767.0,
          1755.0,
          1761.0,
          1772.0,
          1775.0,
          1774.0,
          1773.0,
          1773.0,
          1772.0,
          1760.0,
          1766.0,
          1771.0,
          1771.0,
          1770.0,
          1779.0,
          1779.0,
          1777.0,
          1772.0,
          1782.0,
          1779.0,
          1780.0,
          1785.0,
          1776.0,
          1774.0,
          1786.0,
          1780.0,
          1782.0,
          1777.0,
          1779.0,
          1776.0,
          1778.0
        ]
      },
      "slices": {}
    }
  },
  "dummy_trs": 0,
  "dvars_nstd": 45.11918270888,
  "dvars_std": 1.3025199978399997,
  "dvars_vstd": 1.00931608136,
  "efc": 0.5875757786588687,
  "fber": 1737.0294189453125,
  "fd_mean": 0.5922552558846366,
  "fd_num": 110,
  "fd_perc": 87.3015873015873,
  "fwhm_avg": 1.6668090984178825,
  "fwhm_x": 1.5880633333333334,
  "fwhm_y": 1.8534033333333333,
  "fwhm_z": 1.5589606285869804,
  "gcor": 0.0487353,
  "gsr_x": 0.002635425655171275,
  "gsr_y": 0.041364725679159164,
  "provenance": {
    "md5sum": "0b2949e95fa4c6d7d1035983e23e0e1d",
    "settings": {
      "fd_thres": 0.2,
      "testing": false
    },
    "software": "mriqc",
    "version": "22.0.1",
    "webapi_port": null,
    "webapi_url": "https://mriqc.nimh.nih.gov/api/v1"
  },
  "size_t": 126,
  "size_x": 64,
  "size_y": 64,
  "size_z": 34,
  "snr": 6.936119089317092,
  "spacing_tr": 2.3399999141693115,
  "spacing_x": 3.0,
  "spacing_y": 3.0,
  "spacing_z": 3.299999952316284,
  "summary_bg_k": 61.211649441210355,
  "summary_bg_mad": 9.90754854011893,
  "summary_bg_mean": 37.58829879760742,
  "summary_bg_median": 22.27777862548828,
  "summary_bg_n": 69406.0,
  "summary_bg_p05": 12.317461013793945,
  "summary_bg_p95": 105.87103843688965,
  "summary_bg_stdv": 56.00264358520508,
  "summary_fg_k": 2.570928260060229,
  "summary_fg_mad": 128.24509190073456,
  "summary_fg_mean": 965.6146240234375,
  "summary_fg_median": 958.2222900390625,
  "summary_fg_n": 36747.0,
  "summary_fg_p05": 770.01513671875,
  "summary_fg_p95": 1180.8151245117188,
  "summary_fg_stdv": 138.1477508544922,
  "tsnr": 48.656294834800065
}