{
  "aor": 0.006605590551181102,
  "aqi": 0.011319554960629922,
  "bids_meta": {
    "AcquisitionMatrixPE": 64,
    "AcquisitionNumber": 1,
    "AcquisitionTime": "11:49:36.735000",
    "BandwidthPerPixelPhaseEncode": 24.038,
    "BaseResolution": 64,
    "BodyPartExamined": "HEAD",
    "ConsistencyInfo": "N4_VD13A_LATEST_20120616",
    "ConversionSoftware": "dcm2niix",
    "ConversionSoftwareVersion": "v1.0.20181125  GCC6.3.0",
    "DerivedVendorReportedEchoSpacing": 0.000650012,
    "DeviceSerialNumber": "45250",
    "DwellTime": 4.6e-06,
    "EchoTime": 0.033,
    "EchoTrainLength": 64,
    "EffectiveEchoSpacing": 0.000650012,
    "FlipAngle": 90,
    "ImageOrientationPatientDICOM": [
      0.99811,
      -0.0490948,
      -0.0369595,
      0.0435784,
      0.989532,
      -0.137577
    ],
    "ImageType": [
      "ORIGINAL",
      "PRIMARY",
      "M",
      "ND",
      "NORM",
      "MOSAIC"
    ],
    "ImagingFrequency": 123.214,
    "InPlanePhaseEncodingDirectionDICOM": "COL",
    "InstitutionAddress": "Kopernikusstr._26_Graz_Graz_AT_8010",
    "InstitutionName": "KFU",
    "InstitutionalDepartmentName": "Department",
    "MRAcquisitionType": "2D",
    "MagneticFieldStrength": 3,
    "Manufacturer": "Siemens",
    "ManufacturersModelName": "Skyra",
    "Modality": "MR",
    "PartialFourier": 1,
    "PatientPosition": "HFS",
    "PercentPhaseFOV": 100,
    "PhaseEncodingDirection": "j-",
    "PhaseEncodingSteps": 64,
    "PhaseResolution": 1,
    "PixelBandwidth": 1700,
    "ProcedureStepDescription": "KFU_Entw-Psy",
    "ProtocolName": "fMRI_3",
    "PulseSequenceDetails": "%SiemensSeq%_ep2d_pace",
    "ReceiveCoilActiveElements": "HE1-4",
    "ReceiveCoilName": "HeadNeck_20",
    "ReconMatrixPE": 64,
    "RepetitionTime": 2.34,
    "SAR": 0.189153,
    "ScanOptions": "FS",
    "ScanningSequence": "EP",
    "SequenceName": "_epfid2d1_64",
    "SequenceVariant": "SK",
    "SeriesDescription": "fMRI_3",
    "SeriesNumber": 10,
    "ShimSetting": [
      -1604,
      -3690,
      -4296,
      531,
      403,
      191,
      -29,
      -342
    ],
    "SliceThickness": 3,
    "SliceTiming": [
      2.25,
      2.1825,
      2.115,
      2.045,
      1.9775,
      1.91,
      1.8425,
      1.7725,
      1.705,
      1.6375,
      1.5675,
      1.5,
      1.4325,
      1.3625,
      1.295,
      1.2275,
      1.16,
      1.09,
      1.0225,
      0.955,
      0.885,
      0.8175,
      0.75,
      0.6825,
      0.6125,
      0.545,
      0.4775,
      0.4075,
      0.34,
      0.2725,
      0.205,
      0.135,
      0.0675,
      0
    ],
    "SoftwareVersions": "syngo_MR_D13",
    "SpacingBetweenSlices": 3.3,
    "StationName": "FBMTMR1",
    "TaskName": "read",
    "TotalReadoutTime": 0.0409508,
    "TxRefAmp": 331.248,
    "dataset": "ds003126",
    "dcmmeta_affine": [
      [
        -2.9943301677703857,
        0.13073532283306122,
        -0.14297886192798615,
        89.52306365966797
      ],
      [
        0.1472844034433365,
        2.9685957431793213,
        -0.4478321969509125,
        -116.55146789550781
      ],
      [
        -0.11087846755981445,
        0.4127321243286133,
        3.2663440704345703,
        -22.507753372192383
      ],
      [
        0.0,
        0.0,
        0.0,
        1.0
      ]
    ],
    "dcmmeta_reorient_transform": [
      [
        0.0,
        -1.0,
        0.0,
        63.0
      ],
      [
        1.0,
        0.0,
        0.0,
        0.0
      ],
      [
        0.0,
        0.0,
        1.0,
        0.0
      ],
      [
        0.0,
        0.0,
        0.0,
        1.0
      ]
    ],
    "dcmmeta_shape": [
      64,
      64,
      34,
      127
    ],
    "dcmmeta_slice_dim": 2,
    "dcmmeta_version": 0.6,
    "global": {
      "const": {
        "AcquisitionMatrix": [
          64,
          0,
          0,
          64
        ],
        "AngioFlag": "N",
        "BitsAllocated": 16,
        "BitsStored": 12,
        "BodyPartExamined": "HEAD",
        "Columns": 384,
        "EchoNumbers": 1,
        "EchoTime": 33.0,
        "EchoTrainLength": 64,
        "FlipAngle": 90.0,
        "HighBit": 11,
        "ImageOrientationPatient": [
          0.99811006246472,
          -0.049094799641,
          -0.0369594893753,
          0.04357844127556,
          0.98953190149914,
          -0.1375773795778
        ],
        "ImagePositionPatient": [
          -597.76987114032,
          -521.87987148512,
          87.272068037062
        ],
        "ImageType": [
          "ORIGINAL",
          "PRIMARY",
          "M",
          "ND",
          "NORM",
          "MOSAIC"
        ],
        "ImagedNucleus": "1H",
        "ImagingFrequency": 123.214427,
        "InPlanePhaseEncodingDirection": "COL",
        "MRAcquisitionType": "2D",
        "MagneticFieldStrength": 3.0,
        "Manufacturer": "SIEMENS",
        "ManufacturerModelName": "Skyra",
        "Modality": "MR",
        "NumberOfAverages": 1.0,
        "NumberOfPhaseEncodingSteps": 64,
        "PercentPhaseFieldOfView": 100.0,
        "PercentSampling": 100.0,
        "PerformedProcedureStepStartTime": "111003.976000",
        "PhotometricInterpretation": "MONOCHROME2",
        "PixelBandwidth": 1700.0,
        "PixelRepresentation": 0,
        "PixelSpacing": [
          3.0,
          3.0
        ],
        "ProtocolName": "fMRI_3",
        "RepetitionTime": 2340.0,
        "Rows": 384,
        "SAR": 0.1891527174401,
        "SamplesPerPixel": 1,
        "ScanOptions": "FS",
        "ScanningSequence": "EP",
        "SequenceName": "*epfid2d1_64",
        "SequenceVariant": "SK",
        "SeriesDescription": "fMRI_3",
        "SeriesNumber": 10,
        "SeriesTime": "115023.774000",
        "SliceLocation": -10.340143120099,
        "SliceThickness": 3.0,
        "SmallestImagePixelValue": 0,
        "SoftwareVersions": "syngo MR D13",
        "SpacingBetweenSlices": 3.2999999508368,
        "SpecificCharacterSet": "ISO_IR 100",
        "StudyID": "1",
        "StudyTime": "111003.929000",
        "TransmitCoilName": "Body",
        "VariableFlipAngleFlag": "N",
        "WindowCenterWidthExplanation": "Algo1",
        "dBdt": 0.0
      },
      "slices": {}
    },
    "modality": "bold",
    "run_id": 3,
    "session_id": "2",
    "subject_id": "047EPKL014008",
    "task_id": "read",
    "time": {
      "samples": {
        "AcquisitionNumber": [
          1,
          2,
          3,
          4,
          5,
          6,
          7,
          8,
          9,
          10,
          11,
          12,
          13,
          14,
          15,
          16,
          17,
          18,
          19,
          20,
          21,
          22,
          23,
          24,
          25,
          26,
          27,
          28,
          29,
          30,
          31,
          32,
          33,
          34,
          35,
          36,
          37,
          38,
          39,
          40,
          41,
          42,
          43,
          44,
          45,
          46,
          47,
          48,
          49,
          50,
          51,
          52,
          53,
          54,
          55,
          56,
          57,
          58,
          59,
          60,
          61,
          62,
          63,
          64,
          65,
          66,
          67,
          68,
          69,
          70,
          71,
          72,
          73,
          74,
          75,
          76,
          77,
          78,
          79,
          80,
          81,
          82,
          83,
          84,
          85,
          86,
          87,
          88,
          89,
          90,
          91,
          92,
          93,
          94,
          95,
          96,
          97,
          98,
          99,
          100,
          101,
          102,
          103,
          104,
          105,
          106,
          107,
          108,
          109,
          110,
          111,
          112,
          113,
          114,
          115,
          116,
          117,
          118,
          119,
          120,
          121,
          122,
          123,
          124,
          125,
          126,
          127
        ],
        "AcquisitionTime": [
          "114936.735000",
          "114939.075000",
          "114941.415000",
          "114943.755000",
          "114946.095000",
          "114948.435000",
          "114950.775000",
          "114953.115000",
          "114955.455000",
          "114957.795000",
          "115000.135000",
          "115002.475000",
          "115004.815000",
          "115007.155000",
          "115009.495000",
          "115011.835000",
          "115014.175000",
          "115016.515000",
          "115018.855000",
          "115021.195000",
          "115023.535000",
          "115025.875000",
          "115028.215000",
          "115030.555000",
          "115032.895000",
          "115035.235000",
          "115037.575000",
          "115039.915000",
          "115042.255000",
          "115044.595000",
          "115046.935000",
          "115049.275000",
          "115051.615000",
          "115053.955000",
          "115056.295000",
          "115058.635000",
          "115100.975000",
          "115103.315000",
          "115105.655000",
          "115107.995000",
          "115110.335000",
          "115112.675000",
          "115115.015000",
          "115117.355000",
          "115119.695000",
          "115122.035000",
          "115124.375000",
          "115126.715000",
          "115129.055000",
          "115131.395000",
          "115133.735000",
          "115136.075000",
          "115138.415000",
          "115140.755000",
          "115143.095000",
          "115145.435000",
          "115147.775000",
          "115150.115000",
          "115152.455000",
          "115154.795000",
          "115157.135000",
          "115159.475000",
          "115201.815000",
          "115204.155000",
          "115206.495000",
          "115208.835000",
          "115211.175000",
          "115213.515000",
          "115215.855000",
          "115218.195000",
          "115220.535000",
          "115222.875000",
          "115225.215000",
          "115227.555000",
          "115229.895000",
          "115232.235000",
          "115234.575000",
          "115236.915000",
          "115239.255000",
          "115241.595000",
          "115243.935000",
          "115246.275000",
          "115248.615000",
          "115250.955000",
          "115253.295000",
          "115255.635000",
          "115257.975000",
          "115300.315000",
          "115302.655000",
          "115304.995000",
          "115307.335000",
          "115309.675000",
          "115312.015000",
          "115314.355000",
          "115316.695000",
          "115319.035000",
          "115321.375000",
          "115323.715000",
          "115326.055000",
          "115328.395000",
          "115330.735000",
          "115333.075000",
          "115335.415000",
          "115337.755000",
          "115340.095000",
          "115342.435000",
          "115344.775000",
          "115347.115000",
          "115349.455000",
          "115351.795000",
          "115354.135000",
          "115356.475000",
          "115358.815000",
          "115401.155000",
          "115403.495000",
          "115405.835000",
          "115408.175000",
          "115410.515000",
          "115412.855000",
          "115415.195000",
          "115417.535000",
          "115419.875000",
          "115422.215000",
          "115424.555000",
          "115426.895000",
          "115429.235000",
          "115431.575000"
        ],
        "ContentTime": [
          "115023.779000",
          "115023.783000",
          "115023.785000",
          "115023.788000",
          "115023.791000",
          "115023.802000",
          "115023.804000",
          "115023.807000",
          "115023.810000",
          "115023.813000",
          "115023.815000",
          "115023.818000",
          "115023.820000",
          "115023.823000",
          "115023.826000",
          "115023.828000",
          "115023.831000",
          "115023.833000",
          "115023.836000",
          "115023.839000",
          "115123.774000",
          "115123.777000",
          "115123.780000",
          "115123.783000",
          "115123.785000",
          "115123.788000",
          "115123.791000",
          "115123.793000",
          "115123.796000",
          "115123.799000",
          "115123.801000",
          "115123.804000",
          "115123.807000",
          "115123.809000",
          "115123.812000",
          "115123.815000",
          "115123.817000",
          "115123.820000",
          "115123.834000",
          "115123.837000",
          "115123.840000",
          "115123.843000",
          "115123.845000",
          "115123.855000",
          "115123.858000",
          "115123.860000",
          "115223.774000",
          "115223.778000",
          "115223.780000",
          "115223.783000",
          "115223.785000",
          "115223.788000",
          "115223.791000",
          "115223.793000",
          "115223.796000",
          "115223.798000",
          "115223.801000",
          "115223.804000",
          "115223.806000",
          "115223.809000",
          "115223.811000",
          "115223.814000",
          "115223.817000",
          "115223.819000",
          "115223.822000",
          "115223.825000",
          "115223.827000",
          "115223.830000",
          "115223.832000",
          "115223.835000",
          "115223.838000",
          "115223.841000",
          "115323.774000",
          "115323.777000",
          "115323.780000",
          "115323.782000",
          "115323.785000",
          "115323.788000",
          "115323.790000",
          "115323.793000",
          "115323.795000",
          "115323.798000",
          "115323.801000",
          "115323.803000",
          "115323.806000",
          "115323.809000",
          "115323.811000",
          "115323.814000",
          "115323.817000",
          "115323.819000",
          "115323.822000",
          "115323.825000",
          "115323.828000",
          "115323.830000",
          "115323.833000",
          "115323.836000",
          "115323.839000",
          "115423.774000",
          "115423.777000",
          "115423.780000",
          "115423.783000",
          "115423.786000",
          "115423.789000",
          "115423.791000",
          "115423.794000",
          "115423.797000",
          "115423.800000",
          "115423.802000",
          "115423.805000",
          "115423.808000",
          "115423.810000",
          "115423.813000",
          "115423.816000",
          "115423.819000",
          "115423.821000",
          "115423.824000",
          "115423.826000",
          "115423.829000",
          "115423.832000",
          "115423.835000",
          "115423.837000",
          "115423.840000",
          "115423.843000",
          "115433.906000",
          "115433.910000",
          "115433.912000",
          "115433.916000"
        ],
        "InstanceCreationTime": [
          "115023.779000",
          "115023.783000",
          "115023.785000",
          "115023.788000",
          "115023.791000",
          "115023.802000",
          "115023.804000",
          "115023.807000",
          "115023.810000",
          "115023.813000",
          "115023.815000",
          "115023.818000",
          "115023.820000",
          "115023.823000",
          "115023.826000",
          "115023.828000",
          "115023.831000",
          "115023.833000",
          "115023.836000",
          "115023.839000",
          "115123.774000",
          "115123.777000",
          "115123.780000",
          "115123.783000",
          "115123.785000",
          "115123.788000",
          "115123.791000",
          "115123.793000",
          "115123.796000",
          "115123.799000",
          "115123.801000",
          "115123.804000",
          "115123.807000",
          "115123.809000",
          "115123.812000",
          "115123.815000",
          "115123.817000",
          "115123.820000",
          "115123.834000",
          "115123.837000",
          "115123.840000",
          "115123.843000",
          "115123.845000",
          "115123.855000",
          "115123.858000",
          "115123.860000",
          "115223.774000",
          "115223.778000",
          "115223.780000",
          "115223.783000",
          "115223.785000",
          "115223.788000",
          "115223.791000",
          "115223.793000",
          "115223.796000",
          "115223.798000",
          "115223.801000",
          "115223.804000",
          "115223.806000",
          "115223.809000",
          "115223.811000",
          "115223.814000",
          "115223.817000",
          "115223.819000",
          "115223.822000",
          "115223.825000",
          "115223.827000",
          "115223.830000",
          "115223.832000",
          "115223.835000",
          "115223.838000",
          "115223.841000",
          "115323.774000",
          "115323.777000",
          "115323.780000",
          "115323.782000",
          "115323.785000",
          "115323.788000",
          "115323.790000",
          "115323.793000",
          "115323.795000",
          "115323.798000",
          "115323.801000",
          "115323.803000",
          "115323.806000",
          "115323.809000",
          "115323.811000",
          "115323.814000",
          "115323.817000",
          "115323.819000",
          "115323.822000",
          "115323.825000",
          "115323.828000",
          "115323.830000",
          "115323.833000",
          "115323.836000",
          "115323.839000",
          "115423.774000",
          "115423.777000",
          "115423.780000",
          "115423.783000",
          "115423.786000",
          "115423.789000",
          "115423.791000",
          "115423.794000",
          "115423.797000",
          "115423.800000",
          "115423.802000",
          "115423.805000",
          "115423.808000",
          "115423.810000",
          "115423.813000",
          "115423.816000",
          "115423.819000",
          "115423.821000",
          "115423.824000",
          "115423.826000",
          "115423.829000",
          "115423.832000",
          "115423.835000",
          "115423.837000",
          "115423.840000",
          "115423.843000",
          "115433.906000",
          "115433.910000",
          "115433.912000",
          "115433.916000"
        ],
        "InstanceNumber": [
          1,
          2,
          3,
          4,
          5,
          6,
          7,
          8,
          9,
          10,
          11,
          12,
          13,
          14,
          15,
          16,
          17,
          18,
          19,
          20,
          21,
          22,
          23,
          24,
          25,
          26,
          27,
          28,
          29,
          30,
          31,
          32,
          33,
          34,
          35,
          36,
          37,
          38,
          39,
          40,
          41,
          42,
          43,
          44,
          45,
          46,
          47,
          48,
          49,
          50,
          51,
          52,
          53,
          54,
          55,
          56,
          57,
          58,
          59,
          60,
          61,
          62,
          63,
          64,
          65,
          66,
          67,
          68,
          69,
          70,
          71,
          72,
          73,
          74,
          75,
          76,
          77,
          78,
          79,
          80,
          81,
          82,
          83,
          84,
          85,
          86,
          87,
          88,
          89,
          90,
          91,
          92,
          93,
          94,
          95,
          96,
          97,
          98,
          99,
          100,
          101,
          102,
          103,
          104,
          105,
          106,
          107,
          108,
          109,
          110,
          111,
          112,
          113,
          114,
          115,
          116,
          117,
          118,
          119,
          120,
          121,
          122,
          123,
          124,
          125,
          126,
          127
        ],
        "LargestImagePixelValue": [
          1856,
          1738,
          1885,
          1723,
          1677,
          1850,
          1856,
          1930,
          1658,
          1877,
          1833,
          1993,
          1698,
          1844,
          1778,
          2006,
          1767,
          1687,
          1768,
          1910,
          1841,
          1979,
          1734,
          1827,
          1764,
          1900,
          1679,
          1877,
          1788,
          1959,
          1827,
          1707,
          1876,
          1842,
          1829,
          1924,
          1816,
          1868,
          1729,
          2006,
          1761,
          1738,
          1781,
          1851,
          1826,
          1712,
          1803,
          1930,
          1736,
          1968,
          1721,
          1859,
          1879,
          1909,
          1885,
          1920,
          1903,
          1776,
          2013,
          1724,
          1997,
          1657,
          1779,
          1881,
          1712,
          1666,
          1902,
          1667,
          1819,
          1917,
          1692,
          1900,
          1695,
          1844,
          1870,
          1722,
          1987,
          1696,
          1908,
          1778,
          1856,
          1795,
          1876,
          1880,
          1741,
          2014,
          1777,
          1681,
          1733,
          1752,
          1895,
          1962,
          1765,
          1870,
          1722,
          1996,
          1729,
          1847,
          1886,
          1646,
          1852,
          1817,
          1834,
          1814,
          1979,
          1817,
          1803,
          1712,
          1973,
          2109,
          1756,
          1812,
          1755,
          1870,
          1797,
          1922,
          1962,
          1998,
          1880,
          1834,
          1975,
          1962,
          1772,
          1917,
          1888,
          1808,
          1902
        ],
        "WindowCenter": [
          774.0,
          773.0,
          772.0,
          772.0,
          773.0,
          773.0,
          771.0,
          770.0,
          770.0,
          773.0,
          773.0,
          772.0,
          770.0,
          772.0,
          772.0,
          773.0,
          771.0,
          771.0,
          774.0,
          774.0,
          772.0,
          773.0,
          770.0,
          771.0,
          772.0,
          773.0,
          774.0,
          775.0,
          773.0,
          773.0,
          773.0,
          772.0,
          774.0,
          775.0,
          775.0,
          775.0,
          771.0,
          773.0,
          774.0,
          775.0,
          773.0,
          773.0,
          775.0,
          775.0,
          776.0,
          776.0,
          775.0,
          773.0,
          773.0,
          774.0,
          773.0,
          774.0,
          775.0,
          776.0,
          774.0,
          773.0,
          772.0,
          774.0,
          775.0,
          775.0,
          776.0,
          776.0,
          775.0,
          774.0,
          774.0,
          775.0,
          776.0,
          773.0,
          774.0,
          774.0,
          775.0,
          776.0,
          775.0,
          774.0,
          775.0,
          776.0,
          776.0,
          774.0,
          778.0,
          775.0,
          777.0,
          775.0,
          774.0,
          776.0,
          774.0,
          775.0,
          774.0,
          774.0,
          775.0,
          779.0,
          776.0,
          777.0,
          774.0,
          776.0,
          776.0,
          775.0,
          774.0,
          777.0,
          777.0,
          777.0,
          778.0,
          778.0,
          775.0,
          779.0,
          777.0,
          777.0,
          776.0,
          778.0,
          778.0,
          776.0,
          775.0,
          776.0,
          777.0,
          779.0,
          776.0,
          778.0,
          777.0,
          776.0,
          777.0,
          777.0,
          778.0,
          777.0,
          777.0,
          777.0,
          779.0,
          778.0,
          778.0
        ],
        "WindowWidth": [
          1642.0,
          1638.0,
          1636.0,
          1637.0,
          1639.0,
          1638.0,
          1633.0,
          1631.0,
          1632.0,
          1639.0,
          1637.0,
          1637.0,
          1631.0,
          1636.0,
          1636.0,
          1639.0,
          1633.0,
          1635.0,
          1642.0,
          1641.0,
          1636.0,
          1641.0,
          1633.0,
          1633.0,
          1636.0,
          1639.0,
          1641.0,
          1644.0,
          1640.0,
          1640.0,
          1638.0,
          1638.0,
          1642.0,
          1643.0,
          1645.0,
          1643.0,
          1634.0,
          1638.0,
          1642.0,
          1645.0,
          1640.0,
          1638.0,
          1644.0,
          1645.0,
          1646.0,
          1646.0,
          1645.0,
          1640.0,
          1639.0,
          1643.0,
          1640.0,
          1643.0,
          1644.0,
          1646.0,
          1641.0,
          1638.0,
          1638.0,
          1642.0,
          1645.0,
          1645.0,
          1646.0,
          1647.0,
          1643.0,
          1642.0,
          1640.0,
          1644.0,
          1645.0,
          1639.0,
          1641.0,
          1643.0,
          1643.0,
          1646.0,
          1645.0,
          1642.0,
          1644.0,
          1647.0,
          1648.0,
          1642.0,
          1650.0,
          1646.0,
          1649.0,
          1643.0,
          1641.0,
          1646.0,
          1642.0,
          1644.0,
          1642.0,
          1642.0,
          1644.0,
          1654.0,
          1647.0,
          1649.0,
          1643.0,
          1648.0,
          1647.0,
          1645.0,
          1642.0,
          1650.0,
          1649.0,
          1648.0,
          1651.0,
          1652.0,
          1644.0,
          1655.0,
          1649.0,
          1649.0,
          1649.0,
          1652.0,
          1652.0,
          1648.0,
          1645.0,
          1646.0,
          1651.0,
          1654.0,
          1648.0,
          1652.0,
          1651.0,
          1648.0,
          1649.0,
          1651.0,
          1653.0,
          1651.0,
          1649.0,
          1651.0,
          1654.0,
          1652.0,
          1651.0
        ]
      },
      "slices": {}
    }
  },
  "dummy_trs": 0,
  "dvars_nstd": 32.87229336642856,
  "dvars_std": 1.3105287749206354,
  "dvars_vstd": 1.053783514365079,
  "efc": 0.5618640823481413,
  "fber": 1485.35302734375,
  "fd_mean": 0.4168742154528826,
  "fd_num": 101,
  "fd_perc": 79.5275590551181,
  "fwhm_avg": 1.6331987103774768,
  "fwhm_x": 1.5577733333333335,
  "fwhm_y": 1.8155865223768137,
  "fwhm_z": 1.5262362754222827,
  "gcor": 0.0583935,
  "gsr_x": -0.008047463372349739,
  "gsr_y": 0.029805373400449753,
  "provenance": {
    "md5sum": "98734d265444af16447ea22ea282c29f",
    "settings": {
      "fd_thres": 0.2,
      "testing": false
    },
    "software": "mriqc",
    "version": "22.0.1",
    "webapi_port": null,
    "webapi_url": "https://mriqc.nimh.nih.gov/api/v1"
  },
  "size_t": 127,
  "size_x": 64,
  "size_y": 64,
  "size_z": 34,
  "snr": 7.063905852458747,
  "spacing_tr": 2.3399999141693115,
  "spacing_x": 3.0,
  "spacing_y": 3.000000238418579,
  "spacing_z": 3.3000001907348633,
  "summary_bg_k": 79.59281964291267,
  "summary_bg_mad": 8.75552497923401,
  "summary_bg_mean": 35.51369094848633,
  "summary_bg_median": 22.740158081054688,
  "summary_bg_n": 74269.0,
  "summary_bg_p05": 12.401575088500977,
  "summary_bg_p95": 93.92598114013666,
  "summary_bg_stdv": 52.719947814941406,
  "summary_fg_k": 2.7291998585713753,
  "summary_fg_mad": 124.71368616482263,
  "summary_fg_mean": 894.3384399414062,
  "summary_fg_median": 891.9212646484375,
  "summary_fg_n": 32581.0,
  "summary_fg_p05": 712.0551147460938,
  "summary_fg_p95": 1086.7401123046875,
  "summary_fg_stdv": 126.26266479492188,
  "tsnr": 60.68467595032416
}