{
  "aor": 0.006611102362204724,
  "aqi": 0.015300505669291342,
  "bids_meta": {
    "AcquisitionMatrixPE": 64,
    "AcquisitionNumber": 1,
    "AcquisitionTime": "11:37:39.515000",
    "BandwidthPerPixelPhaseEncode": 24.038,
    "BaseResolution": 64,
    "BodyPartExamined": "HEAD",
    "ConsistencyInfo": "N4_VD13A_LATEST_20120616",
    "ConversionSoftware": "dcm2niix",
    "ConversionSoftwareVersion": "v1.0.20181125  GCC6.3.0",
    "DerivedVendorReportedEchoSpacing": 0.000650012,
    "DeviceSerialNumber": "45250",
    "DwellTime": 4.6e-06,
    "EchoTime": 0.033,
    "EchoTrainLength": 64,
    "EffectiveEchoSpacing": 0.000650012,
    "FlipAngle": 90,
    "ImageOrientationPatientDICOM": [
      0.99811,
      -0.0490948,
      -0.0369595,
      0.0435784,
      0.989532,
      -0.137577
    ],
    "ImageType": [
      "ORIGINAL",
      "PRIMARY",
      "M",
      "ND",
      "NORM",
      "MOSAIC"
    ],
    "ImagingFrequency": 123.214,
    "InPlanePhaseEncodingDirectionDICOM": "COL",
    "InstitutionAddress": "Kopernikusstr._26_Graz_Graz_AT_8010",
    "InstitutionName": "KFU",
    "InstitutionalDepartmentName": "Department",
    "MRAcquisitionType": "2D",
    "MagneticFieldStrength": 3,
    "Manufacturer": "Siemens",
    "ManufacturersModelName": "Skyra",
    "Modality": "MR",
    "PartialFourier": 1,
    "PatientPosition": "HFS",
    "PercentPhaseFOV": 100,
    "PhaseEncodingDirection": "j-",
    "PhaseEncodingSteps": 64,
    "PhaseResolution": 1,
    "PixelBandwidth": 1700,
    "ProcedureStepDescription": "KFU_Entw-Psy",
    "ProtocolName": "fMRI_1",
    "PulseSequenceDetails": "%SiemensSeq%_ep2d_pace",
    "ReceiveCoilActiveElements": "HE1-4",
    "ReceiveCoilName": "HeadNeck_20",
    "ReconMatrixPE": 64,
    "RepetitionTime": 2.34,
    "SAR": 0.189153,
    "ScanOptions": "FS",
    "ScanningSequence": "EP",
    "SequenceName": "_epfid2d1_64",
    "SequenceVariant": "SK",
    "SeriesDescription": "fMRI_1",
    "SeriesNumber": 4,
    "ShimSetting": [
      -1603,
      -3689,
      -4298,
      523,
      412,
      185,
      -32,
      -345
    ],
    "SliceThickness": 3,
    "SliceTiming": [
      2.25,
      2.1825,
      2.115,
      2.0475,
      1.9775,
      1.91,
      1.8425,
      1.7725,
      1.705,
      1.6375,
      1.57,
      1.5,
      1.4325,
      1.365,
      1.295,
      1.2275,
      1.16,
      1.09,
      1.0225,
      0.955,
      0.8875,
      0.8175,
      0.75,
      0.6825,
      0.6125,
      0.545,
      0.4775,
      0.41,
      0.34,
      0.2725,
      0.205,
      0.135,
      0.0675,
      0
    ],
    "SoftwareVersions": "syngo_MR_D13",
    "SpacingBetweenSlices": 3.3,
    "StationName": "FBMTMR1",
    "TaskName": "read",
    "TotalReadoutTime": 0.0409508,
    "TxRefAmp": 331.248,
    "dataset": "ds003126",
    "dcmmeta_affine": [
      [
        -2.9943301677703857,
        0.13073532283306122,
        -0.14297886192798615,
        89.52306365966797
      ],
      [
        0.1472844034433365,
        2.9685957431793213,
        -0.4478321969509125,
        -115.94905853271484
      ],
      [
        -0.11087846755981445,
        0.4127321243286133,
        3.2663440704345703,
        -23.712574005126953
      ],
      [
        0.0,
        0.0,
        0.0,
        1.0
      ]
    ],
    "dcmmeta_reorient_transform": [
      [
        0.0,
        -1.0,
        0.0,
        63.0
      ],
      [
        1.0,
        0.0,
        0.0,
        0.0
      ],
      [
        0.0,
        0.0,
        1.0,
        0.0
      ],
      [
        0.0,
        0.0,
        0.0,
        1.0
      ]
    ],
    "dcmmeta_shape": [
      64,
      64,
      34,
      127
    ],
    "dcmmeta_slice_dim": 2,
    "dcmmeta_version": 0.6,
    "global": {
      "const": {
        "AcquisitionMatrix": [
          64,
          0,
          0,
          64
        ],
        "AngioFlag": "N",
        "BitsAllocated": 16,
        "BitsStored": 12,
        "BodyPartExamined": "HEAD",
        "Columns": 384,
        "EchoNumbers": 1,
        "EchoTime": 33.0,
        "EchoTrainLength": 64,
        "FlipAngle": 90.0,
        "HighBit": 11,
        "ImageOrientationPatient": [
          0.99811006246472,
          -0.049094799641,
          -0.0369594893753,
          0.04357844127556,
          0.98953190149914,
          -0.1375773795778
        ],
        "ImagePositionPatient": [
          -597.76987114032,
          -522.48228084792,
          86.067248357801
        ],
        "ImageType": [
          "ORIGINAL",
          "PRIMARY",
          "M",
          "ND",
          "NORM",
          "MOSAIC"
        ],
        "ImagedNucleus": "1H",
        "ImagingFrequency": 123.214404,
        "InPlanePhaseEncodingDirection": "COL",
        "MRAcquisitionType": "2D",
        "MagneticFieldStrength": 3.0,
        "Manufacturer": "SIEMENS",
        "ManufacturerModelName": "Skyra",
        "Modality": "MR",
        "NumberOfAverages": 1.0,
        "NumberOfPhaseEncodingSteps": 64,
        "PercentPhaseFieldOfView": 100.0,
        "PercentSampling": 100.0,
        "PerformedProcedureStepStartTime": "111003.976000",
        "PhotometricInterpretation": "MONOCHROME2",
        "PixelBandwidth": 1700.0,
        "PixelRepresentation": 0,
        "PixelSpacing": [
          3.0,
          3.0
        ],
        "ProtocolName": "fMRI_1",
        "RepetitionTime": 2340.0,
        "Rows": 384,
        "SAR": 0.1891527174401,
        "SamplesPerPixel": 1,
        "ScanOptions": "FS",
        "ScanningSequence": "EP",
        "SequenceName": "*epfid2d1_64",
        "SequenceVariant": "SK",
        "SeriesDescription": "fMRI_1",
        "SeriesNumber": 4,
        "SeriesTime": "113824.568000",
        "SliceLocation": -11.614426116694,
        "SliceThickness": 3.0,
        "SmallestImagePixelValue": 0,
        "SoftwareVersions": "syngo MR D13",
        "SpacingBetweenSlices": 3.2999999794413,
        "SpecificCharacterSet": "ISO_IR 100",
        "StudyID": "1",
        "StudyTime": "111003.929000",
        "TransmitCoilName": "Body",
        "VariableFlipAngleFlag": "N",
        "WindowCenterWidthExplanation": "Algo1",
        "dBdt": 0.0
      },
      "slices": {}
    },
    "modality": "bold",
    "run_id": 1,
    "session_id": "2",
    "subject_id": "047EPKL014008",
    "task_id": "read",
    "time": {
      "samples": {
        "AcquisitionNumber": [
          1,
          2,
          3,
          4,
          5,
          6,
          7,
          8,
          9,
          10,
          11,
          12,
          13,
          14,
          15,
          16,
          17,
          18,
          19,
          20,
          21,
          22,
          23,
          24,
          25,
          26,
          27,
          28,
          29,
          30,
          31,
          32,
          33,
          34,
          35,
          36,
          37,
          38,
          39,
          40,
          41,
          42,
          43,
          44,
          45,
          46,
          47,
          48,
          49,
          50,
          51,
          52,
          53,
          54,
          55,
          56,
          57,
          58,
          59,
          60,
          61,
          62,
          63,
          64,
          65,
          66,
          67,
          68,
          69,
          70,
          71,
          72,
          73,
          74,
          75,
          76,
          77,
          78,
          79,
          80,
          81,
          82,
          83,
          84,
          85,
          86,
          87,
          88,
          89,
          90,
          91,
          92,
          93,
          94,
          95,
          96,
          97,
          98,
          99,
          100,
          101,
          102,
          103,
          104,
          105,
          106,
          107,
          108,
          109,
          110,
          111,
          112,
          113,
          114,
          115,
          116,
          117,
          118,
          119,
          120,
          121,
          122,
          123,
          124,
          125,
          126,
          127
        ],
        "AcquisitionTime": [
          "113739.515000",
          "113741.855000",
          "113744.195000",
          "113746.535000",
          "113748.875000",
          "113751.215000",
          "113753.555000",
          "113755.895000",
          "113758.235000",
          "113800.575000",
          "113802.915000",
          "113805.255000",
          "113807.595000",
          "113809.935000",
          "113812.275000",
          "113814.615000",
          "113816.955000",
          "113819.295000",
          "113821.635000",
          "113823.975000",
          "113826.315000",
          "113828.655000",
          "113830.995000",
          "113833.335000",
          "113835.675000",
          "113838.015000",
          "113840.355000",
          "113842.695000",
          "113845.035000",
          "113847.375000",
          "113849.715000",
          "113852.055000",
          "113854.395000",
          "113856.735000",
          "113859.075000",
          "113901.415000",
          "113903.755000",
          "113906.095000",
          "113908.435000",
          "113910.775000",
          "113913.115000",
          "113915.455000",
          "113917.795000",
          "113920.135000",
          "113922.475000",
          "113924.815000",
          "113927.155000",
          "113929.495000",
          "113931.835000",
          "113934.175000",
          "113936.515000",
          "113938.855000",
          "113941.195000",
          "113943.535000",
          "113945.875000",
          "113948.215000",
          "113950.555000",
          "113952.895000",
          "113955.235000",
          "113957.575000",
          "113959.915000",
          "114002.255000",
          "114004.595000",
          "114006.935000",
          "114009.275000",
          "114011.615000",
          "114013.955000",
          "114016.295000",
          "114018.635000",
          "114020.975000",
          "114023.315000",
          "114025.655000",
          "114027.995000",
          "114030.335000",
          "114032.675000",
          "114035.015000",
          "114037.355000",
          "114039.695000",
          "114042.035000",
          "114044.375000",
          "114046.715000",
          "114049.055000",
          "114051.395000",
          "114053.735000",
          "114056.075000",
          "114058.415000",
          "114100.755000",
          "114103.095000",
          "114105.435000",
          "114107.775000",
          "114110.115000",
          "114112.455000",
          "114114.795000",
          "114117.135000",
          "114119.475000",
          "114121.815000",
          "114124.155000",
          "114126.495000",
          "114128.835000",
          "114131.175000",
          "114133.515000",
          "114135.855000",
          "114138.195000",
          "114140.535000",
          "114142.875000",
          "114145.215000",
          "114147.555000",
          "114149.895000",
          "114152.235000",
          "114154.575000",
          "114156.915000",
          "114159.255000",
          "114201.595000",
          "114203.935000",
          "114206.275000",
          "114208.615000",
          "114210.955000",
          "114213.295000",
          "114215.635000",
          "114217.975000",
          "114220.315000",
          "114222.655000",
          "114224.995000",
          "114227.335000",
          "114229.675000",
          "114232.015000",
          "114234.355000"
        ],
        "ContentTime": [
          "113824.573000",
          "113824.576000",
          "113824.579000",
          "113824.582000",
          "113824.591000",
          "113824.594000",
          "113824.597000",
          "113824.599000",
          "113824.604000",
          "113824.607000",
          "113824.609000",
          "113824.612000",
          "113824.615000",
          "113824.617000",
          "113824.620000",
          "113824.627000",
          "113824.630000",
          "113824.633000",
          "113824.636000",
          "113824.638000",
          "113924.566000",
          "113924.569000",
          "113924.571000",
          "113924.574000",
          "113924.577000",
          "113924.579000",
          "113924.582000",
          "113924.585000",
          "113924.587000",
          "113924.590000",
          "113924.593000",
          "113924.595000",
          "113924.598000",
          "113924.601000",
          "113924.603000",
          "113924.606000",
          "113924.608000",
          "113924.611000",
          "113924.614000",
          "113924.617000",
          "113924.619000",
          "113924.622000",
          "113924.625000",
          "113924.627000",
          "113924.630000",
          "114024.566000",
          "114024.569000",
          "114024.572000",
          "114024.575000",
          "114024.577000",
          "114024.580000",
          "114024.583000",
          "114024.585000",
          "114024.588000",
          "114024.591000",
          "114024.593000",
          "114024.596000",
          "114024.599000",
          "114024.601000",
          "114024.604000",
          "114024.607000",
          "114024.609000",
          "114024.612000",
          "114024.615000",
          "114024.618000",
          "114024.620000",
          "114024.623000",
          "114024.626000",
          "114024.628000",
          "114024.631000",
          "114024.634000",
          "114124.566000",
          "114124.570000",
          "114124.572000",
          "114124.575000",
          "114124.578000",
          "114124.580000",
          "114124.583000",
          "114124.586000",
          "114124.588000",
          "114124.591000",
          "114124.594000",
          "114124.597000",
          "114124.599000",
          "114124.602000",
          "114124.604000",
          "114124.607000",
          "114124.610000",
          "114124.613000",
          "114124.615000",
          "114124.618000",
          "114124.621000",
          "114124.623000",
          "114124.626000",
          "114124.629000",
          "114124.631000",
          "114124.634000",
          "114224.566000",
          "114224.569000",
          "114224.572000",
          "114224.575000",
          "114224.578000",
          "114224.581000",
          "114224.583000",
          "114224.586000",
          "114224.589000",
          "114224.591000",
          "114224.594000",
          "114224.597000",
          "114224.599000",
          "114224.602000",
          "114224.605000",
          "114224.608000",
          "114224.610000",
          "114224.613000",
          "114224.616000",
          "114224.619000",
          "114224.621000",
          "114224.624000",
          "114224.627000",
          "114224.630000",
          "114224.633000",
          "114236.758000",
          "114236.761000",
          "114236.769000",
          "114236.773000",
          "114236.777000"
        ],
        "InstanceCreationTime": [
          "113824.573000",
          "113824.576000",
          "113824.579000",
          "113824.582000",
          "113824.591000",
          "113824.594000",
          "113824.597000",
          "113824.599000",
          "113824.604000",
          "113824.607000",
          "113824.609000",
          "113824.612000",
          "113824.615000",
          "113824.617000",
          "113824.620000",
          "113824.627000",
          "113824.630000",
          "113824.633000",
          "113824.636000",
          "113824.638000",
          "113924.566000",
          "113924.569000",
          "113924.571000",
          "113924.574000",
          "113924.577000",
          "113924.579000",
          "113924.582000",
          "113924.585000",
          "113924.587000",
          "113924.590000",
          "113924.593000",
          "113924.595000",
          "113924.598000",
          "113924.601000",
          "113924.603000",
          "113924.606000",
          "113924.608000",
          "113924.611000",
          "113924.614000",
          "113924.617000",
          "113924.619000",
          "113924.622000",
          "113924.625000",
          "113924.627000",
          "113924.630000",
          "114024.566000",
          "114024.569000",
          "114024.572000",
          "114024.575000",
          "114024.577000",
          "114024.580000",
          "114024.583000",
          "114024.585000",
          "114024.588000",
          "114024.591000",
          "114024.593000",
          "114024.596000",
          "114024.599000",
          "114024.601000",
          "114024.604000",
          "114024.607000",
          "114024.609000",
          "114024.612000",
          "114024.615000",
          "114024.618000",
          "114024.620000",
          "114024.623000",
          "114024.626000",
          "114024.628000",
          "114024.631000",
          "114024.634000",
          "114124.566000",
          "114124.570000",
          "114124.572000",
          "114124.575000",
          "114124.578000",
          "114124.580000",
          "114124.583000",
          "114124.586000",
          "114124.588000",
          "114124.591000",
          "114124.594000",
          "114124.597000",
          "114124.599000",
          "114124.602000",
          "114124.604000",
          "114124.607000",
          "114124.610000",
          "114124.613000",
          "114124.615000",
          "114124.618000",
          "114124.621000",
          "114124.623000",
          "114124.626000",
          "114124.629000",
          "114124.631000",
          "114124.634000",
          "114224.566000",
          "114224.569000",
          "114224.572000",
          "114224.575000",
          "114224.578000",
          "114224.581000",
          "114224.583000",
          "114224.586000",
          "114224.589000",
          "114224.591000",
          "114224.594000",
          "114224.597000",
          "114224.599000",
          "114224.602000",
          "114224.605000",
          "114224.608000",
          "114224.610000",
          "114224.613000",
          "114224.616000",
          "114224.619000",
          "114224.621000",
          "114224.624000",
          "114224.627000",
          "114224.630000",
          "114224.633000",
          "114236.758000",
          "114236.761000",
          "114236.769000",
          "114236.773000",
          "114236.777000"
        ],
        "InstanceNumber": [
          1,
          2,
          3,
          4,
          5,
          6,
          7,
          8,
          9,
          10,
          11,
          12,
          13,
          14,
          15,
          16,
          17,
          18,
          19,
          20,
          21,
          22,
          23,
          24,
          25,
          26,
          27,
          28,
          29,
          30,
          31,
          32,
          33,
          34,
          35,
          36,
          37,
          38,
          39,
          40,
          41,
          42,
          43,
          44,
          45,
          46,
          47,
          48,
          49,
          50,
          51,
          52,
          53,
          54,
          55,
          56,
          57,
          58,
          59,
          60,
          61,
          62,
          63,
          64,
          65,
          66,
          67,
          68,
          69,
          70,
          71,
          72,
          73,
          74,
          75,
          76,
          77,
          78,
          79,
          80,
          81,
          82,
          83,
          84,
          85,
          86,
          87,
          88,
          89,
          90,
          91,
          92,
          93,
          94,
          95,
          96,
          97,
          98,
          99,
          100,
          101,
          102,
          103,
          104,
          105,
          106,
          107,
          108,
          109,
          110,
          111,
          112,
          113,
          114,
          115,
          116,
          117,
          118,
          119,
          120,
          121,
          122,
          123,
          124,
          125,
          126,
          127
        ],
        "LargestImagePixelValue": [
          1875,
          1769,
          1852,
          1676,
          1801,
          1718,
          1815,
          1757,
          1719,
          1747,
          1826,
          1664,
          1859,
          1720,
          1807,
          1681,
          1789,
          1670,
          1848,
          1832,
          1901,
          1721,
          1974,
          1704,
          1773,
          1868,
          1681,
          1773,
          1706,
          1819,
          1687,
          1810,
          1915,
          1702,
          1784,
          1696,
          1780,
          1664,
          1691,
          1732,
          1866,
          1750,
          1659,
          1784,
          1602,
          1927,
          1727,
          1775,
          1866,
          1720,
          1638,
          1790,
          1636,
          1880,
          1781,
          1696,
          1790,
          1628,
          1839,
          1676,
          1810,
          1893,
          1633,
          1822,
          1805,
          1814,
          1687,
          1736,
          1754,
          1912,
          1914,
          1670,
          1790,
          1850,
          1829,
          1697,
          1910,
          1656,
          1712,
          1737,
          1676,
          1721,
          1607,
          1807,
          1733,
          1696,
          1632,
          1614,
          1763,
          1908,
          1638,
          1719,
          1895,
          1695,
          1620,
          1836,
          1753,
          1634,
          1713,
          1751,
          1676,
          1807,
          1795,
          1734,
          1638,
          1710,
          1666,
          1766,
          1625,
          1812,
          1633,
          1753,
          1711,
          1624,
          1685,
          1800,
          1692,
          1708,
          1761,
          1609,
          1775,
          1719,
          1736,
          1832,
          1689,
          1783,
          1652
        ],
        "WindowCenter": [
          772.0,
          770.0,
          770.0,
          768.0,
          770.0,
          769.0,
          769.0,
          769.0,
          770.0,
          771.0,
          771.0,
          772.0,
          770.0,
          771.0,
          771.0,
          770.0,
          771.0,
          771.0,
          772.0,
          771.0,
          770.0,
          770.0,
          772.0,
          770.0,
          770.0,
          770.0,
          772.0,
          773.0,
          771.0,
          771.0,
          770.0,
          770.0,
          769.0,
          769.0,
          770.0,
          769.0,
          773.0,
          775.0,
          773.0,
          770.0,
          768.0,
          771.0,
          774.0,
          774.0,
          771.0,
          773.0,
          771.0,
          770.0,
          770.0,
          770.0,
          770.0,
          772.0,
          772.0,
          772.0,
          771.0,
          771.0,
          773.0,
          771.0,
          772.0,
          771.0,
          770.0,
          771.0,
          771.0,
          772.0,
          773.0,
          772.0,
          773.0,
          774.0,
          774.0,
          772.0,
          772.0,
          770.0,
          773.0,
          775.0,
          772.0,
          773.0,
          772.0,
          775.0,
          774.0,
          774.0,
          774.0,
          774.0,
          773.0,
          773.0,
          771.0,
          774.0,
          772.0,
          777.0,
          779.0,
          779.0,
          774.0,
          774.0,
          772.0,
          773.0,
          774.0,
          776.0,
          775.0,
          774.0,
          774.0,
          774.0,
          775.0,
          778.0,
          778.0,
          777.0,
          776.0,
          776.0,
          776.0,
          777.0,
          775.0,
          776.0,
          774.0,
          775.0,
          774.0,
          776.0,
          775.0,
          775.0,
          777.0,
          776.0,
          777.0,
          775.0,
          777.0,
          778.0,
          777.0,
          776.0,
          775.0,
          775.0,
          777.0
        ],
        "WindowWidth": [
          1637.0,
          1632.0,
          1631.0,
          1627.0,
          1632.0,
          1631.0,
          1628.0,
          1631.0,
          1632.0,
          1636.0,
          1634.0,
          1637.0,
          1633.0,
          1635.0,
          1635.0,
          1634.0,
          1635.0,
          1636.0,
          1638.0,
          1635.0,
          1632.0,
          1634.0,
          1637.0,
          1633.0,
          1633.0,
          1634.0,
          1637.0,
          1640.0,
          1636.0,
          1635.0,
          1633.0,
          1631.0,
          1631.0,
          1629.0,
          1631.0,
          1631.0,
          1637.0,
          1646.0,
          1641.0,
          1633.0,
          1629.0,
          1635.0,
          1641.0,
          1643.0,
          1634.0,
          1641.0,
          1636.0,
          1633.0,
          1631.0,
          1633.0,
          1632.0,
          1639.0,
          1638.0,
          1637.0,
          1634.0,
          1635.0,
          1641.0,
          1635.0,
          1639.0,
          1633.0,
          1631.0,
          1638.0,
          1635.0,
          1639.0,
          1641.0,
          1637.0,
          1639.0,
          1642.0,
          1643.0,
          1638.0,
          1636.0,
          1633.0,
          1641.0,
          1647.0,
          1640.0,
          1639.0,
          1637.0,
          1646.0,
          1642.0,
          1644.0,
          1643.0,
          1644.0,
          1639.0,
          1640.0,
          1635.0,
          1644.0,
          1642.0,
          1647.0,
          1655.0,
          1658.0,
          1645.0,
          1644.0,
          1637.0,
          1640.0,
          1642.0,
          1648.0,
          1645.0,
          1642.0,
          1642.0,
          1643.0,
          1645.0,
          1652.0,
          1652.0,
          1652.0,
          1648.0,
          1648.0,
          1648.0,
          1651.0,
          1646.0,
          1648.0,
          1643.0,
          1645.0,
          1644.0,
          1647.0,
          1644.0,
          1646.0,
          1650.0,
          1648.0,
          1650.0,
          1646.0,
          1651.0,
          1652.0,
          1649.0,
          1649.0,
          1644.0,
          1645.0,
          1649.0
        ]
      },
      "slices": {}
    }
  },
  "dummy_trs": 0,
  "dvars_nstd": 35.846250791507934,
  "dvars_std": 1.269045232777777,
  "dvars_vstd": 1.0375004111111115,
  "efc": 0.5605897462236781,
  "fber": 1501.7708740234375,
  "fd_mean": 0.6054101004286571,
  "fd_num": 110,
  "fd_perc": 86.61417322834646,
  "fwhm_avg": 1.6565163860297536,
  "fwhm_x": 1.5807933333333333,
  "fwhm_y": 1.844816520053822,
  "fwhm_z": 1.5439393047021053,
  "gcor": 0.0637906,
  "gsr_x": -0.006916598416864872,
  "gsr_y": 0.029326874762773514,
  "provenance": {
    "md5sum": "d78d93fac889becd41baf3ac6ece5be6",
    "settings": {
      "fd_thres": 0.2,
      "testing": false
    },
    "software": "mriqc",
    "version": "22.0.1",
    "webapi_port": null,
    "webapi_url": "https://mriqc.nimh.nih.gov/api/v1"
  },
  "size_t": 127,
  "size_x": 64,
  "size_y": 64,
  "size_z": 34,
  "snr": 7.05960103494561,
  "spacing_tr": 2.3399999141693115,
  "spacing_x": 3.0,
  "spacing_y": 3.000000238418579,
  "spacing_z": 3.3000001907348633,
  "summary_bg_k": 86.33478835546333,
  "summary_bg_mad": 8.545391067614952,
  "summary_bg_mean": 34.61528396606445,
  "summary_bg_median": 22.56692886352539,
  "summary_bg_n": 74295.0,
  "summary_bg_p05": 12.377952575683594,
  "summary_bg_p95": 89.77007751464858,
  "summary_bg_stdv": 50.3105583190918,
  "summary_fg_k": 2.582938926139466,
  "summary_fg_mad": 123.80900381133694,
  "summary_fg_mean": 892.7818603515625,
  "summary_fg_median": 891.2362060546875,
  "summary_fg_n": 32626.0,
  "summary_fg_p05": 707.4133605957031,
  "summary_fg_p95": 1083.911376953125,
  "summary_fg_stdv": 126.24262237548828,
  "tsnr": 50.51579391723499
}