{
  "aor": 0.012946260162601626,
  "aqi": 0.01669058357723577,
  "bids_meta": {
    "AcquisitionMatrixPE": 64,
    "AcquisitionNumber": 1,
    "AcquisitionTime": "09:23:30.465000",
    "BandwidthPerPixelPhaseEncode": 24.038,
    "BaseResolution": 64,
    "BodyPartExamined": "HEAD",
    "ConsistencyInfo": "N4_VD13A_LATEST_20120616",
    "ConversionSoftware": "dcm2niix",
    "ConversionSoftwareVersion": "v1.0.20181125  GCC6.3.0",
    "DerivedVendorReportedEchoSpacing": 0.000650012,
    "DeviceSerialNumber": "45250",
    "DwellTime": 4.6e-06,
    "EchoTime": 0.033,
    "EchoTrainLength": 64,
    "EffectiveEchoSpacing": 0.000650012,
    "FlipAngle": 90,
    "ImageOrientationPatientDICOM": [
      0.999188,
      0.0351836,
      -0.0196144,
      -0.0383849,
      0.979296,
      -0.198763
    ],
    "ImageType": [
      "ORIGINAL",
      "PRIMARY",
      "M",
      "ND",
      "NORM",
      "MOSAIC"
    ],
    "ImagingFrequency": 123.214,
    "InPlanePhaseEncodingDirectionDICOM": "COL",
    "InstitutionAddress": "Kopernikusstr._26_Graz_Graz_AT_8010",
    "InstitutionName": "KFU",
    "InstitutionalDepartmentName": "Department",
    "MRAcquisitionType": "2D",
    "MagneticFieldStrength": 3,
    "Manufacturer": "Siemens",
    "ManufacturersModelName": "Skyra",
    "Modality": "MR",
    "PartialFourier": 1,
    "PatientPosition": "HFS",
    "PercentPhaseFOV": 100,
    "PhaseEncodingDirection": "j-",
    "PhaseEncodingSteps": 64,
    "PhaseResolution": 1,
    "PixelBandwidth": 1700,
    "ProcedureStepDescription": "KFU_Entw-Psy",
    "ProtocolName": "fMRI_3",
    "PulseSequenceDetails": "%SiemensSeq%_ep2d_pace",
    "ReceiveCoilActiveElements": "HE1-4",
    "ReceiveCoilName": "HeadNeck_20",
    "ReconMatrixPE": 64,
    "RepetitionTime": 2.34,
    "SAR": 0.170546,
    "ScanOptions": "FS",
    "ScanningSequence": "EP",
    "SequenceName": "_epfid2d1_64",
    "SequenceVariant": "SK",
    "SeriesDescription": "fMRI_3",
    "SeriesNumber": 8,
    "ShimSetting": [
      -1516,
      -3609,
      -4269,
      421,
      544,
      328,
      26,
      -225
    ],
    "SliceThickness": 3,
    "SliceTiming": [
      2.2525,
      2.185,
      2.115,
      2.0475,
      1.98,
      1.91,
      1.8425,
      1.775,
      1.7075,
      1.6375,
      1.57,
      1.5025,
      1.4325,
      1.365,
      1.2975,
      1.23,
      1.16,
      1.0925,
      1.025,
      0.955,
      0.8875,
      0.82,
      0.7525,
      0.6825,
      0.615,
      0.5475,
      0.4775,
      0.41,
      0.3425,
      0.2725,
      0.205,
      0.1375,
      0.07,
      0
    ],
    "SoftwareVersions": "syngo_MR_D13",
    "SpacingBetweenSlices": 3.3,
    "StationName": "FBMTMR1",
    "TaskName": "read",
    "TotalReadoutTime": 0.0409508,
    "TxRefAmp": 349.538,
    "dataset": "ds003126",
    "dcmmeta_affine": [
      [
        -2.9975650310516357,
        -0.11515483260154724,
        -0.04030994325876236,
        97.40487670898438
      ],
      [
        -0.1055508702993393,
        2.937886953353882,
        -0.6578693389892578,
        -104.60694885253906
      ],
      [
        -0.05884329602122307,
        0.59628826379776,
        3.2335095405578613,
        -17.23881721496582
      ],
      [
        0.0,
        0.0,
        0.0,
        1.0
      ]
    ],
    "dcmmeta_reorient_transform": [
      [
        0.0,
        -1.0,
        0.0,
        63.0
      ],
      [
        1.0,
        0.0,
        0.0,
        0.0
      ],
      [
        0.0,
        0.0,
        1.0,
        0.0
      ],
      [
        0.0,
        0.0,
        0.0,
        1.0
      ]
    ],
    "dcmmeta_shape": [
      64,
      64,
      34,
      123
    ],
    "dcmmeta_slice_dim": 2,
    "dcmmeta_version": 0.6,
    "global": {
      "const": {
        "AcquisitionMatrix": [
          64,
          0,
          0,
          64
        ],
        "AngioFlag": "N",
        "BitsAllocated": 16,
        "BitsStored": 12,
        "BodyPartExamined": "HEAD",
        "Columns": 384,
        "EchoNumbers": 1,
        "EchoTime": 33.0,
        "EchoTrainLength": 64,
        "FlipAngle": 90.0,
        "HighBit": 11,
        "ImageOrientationPatient": [
          0.99918836393593,
          0.03518362420234,
          -0.0196144325188,
          -0.0383849432786,
          0.97929564626146,
          -0.198762756428
        ],
        "ImagePositionPatient": [
          -551.33576396816,
          -567.4299760164,
          125.14839444267
        ],
        "ImageType": [
          "ORIGINAL",
          "PRIMARY",
          "M",
          "ND",
          "NORM",
          "MOSAIC"
        ],
        "ImagedNucleus": "1H",
        "ImagingFrequency": 123.214415,
        "InPlanePhaseEncodingDirection": "COL",
        "MRAcquisitionType": "2D",
        "MagneticFieldStrength": 3.0,
        "Manufacturer": "SIEMENS",
        "ManufacturerModelName": "Skyra",
        "Modality": "MR",
        "NumberOfAverages": 1.0,
        "NumberOfPhaseEncodingSteps": 64,
        "PercentPhaseFieldOfView": 100.0,
        "PercentSampling": 100.0,
        "PerformedProcedureStepStartTime": "090758.784000",
        "PhotometricInterpretation": "MONOCHROME2",
        "PixelBandwidth": 1700.0,
        "PixelRepresentation": 0,
        "PixelSpacing": [
          3.0,
          3.0
        ],
        "ProtocolName": "fMRI_3",
        "RepetitionTime": 2340.0,
        "Rows": 384,
        "SAR": 0.1705455785325,
        "SamplesPerPixel": 1,
        "ScanOptions": "FS",
        "ScanningSequence": "EP",
        "SequenceName": "*epfid2d1_64",
        "SequenceVariant": "SK",
        "SeriesDescription": "fMRI_3",
        "SeriesNumber": 8,
        "SeriesTime": "092432.194000",
        "SliceLocation": 2.7725571377188,
        "SliceThickness": 3.0,
        "SmallestImagePixelValue": 0,
        "SoftwareVersions": "syngo MR D13",
        "SpacingBetweenSlices": 3.3000000784568,
        "SpecificCharacterSet": "ISO_IR 100",
        "StudyID": "1",
        "StudyTime": "090758.737000",
        "TransmitCoilName": "Body",
        "VariableFlipAngleFlag": "N",
        "WindowCenterWidthExplanation": "Algo1",
        "dBdt": 0.0
      },
      "slices": {}
    },
    "modality": "bold",
    "run_id": 3,
    "session_id": "2",
    "subject_id": "047EPKL014024",
    "task_id": "read",
    "time": {
      "samples": {
        "AcquisitionNumber": [
          1,
          2,
          3,
          4,
          5,
          6,
          7,
          8,
          9,
          10,
          11,
          12,
          13,
          14,
          15,
          16,
          17,
          18,
          19,
          20,
          21,
          22,
          23,
          24,
          25,
          26,
          27,
          28,
          29,
          30,
          31,
          32,
          33,
          34,
          35,
          36,
          37,
          38,
          39,
          40,
          41,
          42,
          43,
          44,
          45,
          46,
          47,
          48,
          49,
          50,
          51,
          52,
          53,
          54,
          55,
          56,
          57,
          58,
          59,
          60,
          61,
          62,
          63,
          64,
          65,
          66,
          67,
          68,
          69,
          70,
          71,
          72,
          73,
          74,
          75,
          76,
          77,
          78,
          79,
          80,
          81,
          82,
          83,
          84,
          85,
          86,
          87,
          88,
          89,
          90,
          91,
          92,
          93,
          94,
          95,
          96,
          97,
          98,
          99,
          100,
          101,
          102,
          103,
          104,
          105,
          106,
          107,
          108,
          109,
          110,
          111,
          112,
          113,
          114,
          115,
          116,
          117,
          118,
          119,
          120,
          121,
          122,
          123
        ],
        "AcquisitionTime": [
          "092330.465000",
          "092332.805000",
          "092335.145000",
          "092337.485000",
          "092339.825000",
          "092342.165000",
          "092344.505000",
          "092346.845000",
          "092349.185000",
          "092351.525000",
          "092353.865000",
          "092356.205000",
          "092358.545000",
          "092400.885000",
          "092403.225000",
          "092405.565000",
          "092407.905000",
          "092410.245000",
          "092412.585000",
          "092414.925000",
          "092417.265000",
          "092419.605000",
          "092421.945000",
          "092424.285000",
          "092426.625000",
          "092428.965000",
          "092431.305000",
          "092433.645000",
          "092435.985000",
          "092438.325000",
          "092440.665000",
          "092443.005000",
          "092445.345000",
          "092447.685000",
          "092450.025000",
          "092452.365000",
          "092454.705000",
          "092457.045000",
          "092459.385000",
          "092501.725000",
          "092504.065000",
          "092506.405000",
          "092508.745000",
          "092511.085000",
          "092513.425000",
          "092515.765000",
          "092518.105000",
          "092520.445000",
          "092522.785000",
          "092525.125000",
          "092527.465000",
          "092529.805000",
          "092532.145000",
          "092534.485000",
          "092536.825000",
          "092539.165000",
          "092541.505000",
          "092543.845000",
          "092546.185000",
          "092548.525000",
          "092550.865000",
          "092553.205000",
          "092555.545000",
          "092557.885000",
          "092600.225000",
          "092602.565000",
          "092604.905000",
          "092607.245000",
          "092609.585000",
          "092611.925000",
          "092614.265000",
          "092616.605000",
          "092618.945000",
          "092621.285000",
          "092623.625000",
          "092625.965000",
          "092628.305000",
          "092630.645000",
          "092632.985000",
          "092635.325000",
          "092637.665000",
          "092640.005000",
          "092642.345000",
          "092644.685000",
          "092647.025000",
          "092649.365000",
          "092651.705000",
          "092654.045000",
          "092656.385000",
          "092658.725000",
          "092701.065000",
          "092703.405000",
          "092705.745000",
          "092708.085000",
          "092710.425000",
          "092712.765000",
          "092715.105000",
          "092717.445000",
          "092719.785000",
          "092722.125000",
          "092724.465000",
          "092726.805000",
          "092729.145000",
          "092731.485000",
          "092733.825000",
          "092736.165000",
          "092738.505000",
          "092740.845000",
          "092743.185000",
          "092745.525000",
          "092747.865000",
          "092750.205000",
          "092752.545000",
          "092754.885000",
          "092757.225000",
          "092759.565000",
          "092801.905000",
          "092804.245000",
          "092806.585000",
          "092808.925000",
          "092811.265000",
          "092813.605000",
          "092815.945000"
        ],
        "ContentTime": [
          "092432.199000",
          "092432.203000",
          "092432.206000",
          "092432.209000",
          "092432.212000",
          "092432.215000",
          "092432.218000",
          "092432.221000",
          "092432.224000",
          "092432.227000",
          "092432.229000",
          "092432.232000",
          "092432.235000",
          "092432.238000",
          "092432.241000",
          "092432.244000",
          "092432.247000",
          "092432.249000",
          "092432.252000",
          "092432.255000",
          "092432.258000",
          "092432.261000",
          "092432.264000",
          "092432.267000",
          "092432.270000",
          "092432.272000",
          "092432.275000",
          "092532.193000",
          "092532.197000",
          "092532.199000",
          "092532.202000",
          "092532.205000",
          "092532.207000",
          "092532.210000",
          "092532.213000",
          "092532.216000",
          "092532.219000",
          "092532.229000",
          "092532.232000",
          "092532.235000",
          "092532.237000",
          "092532.240000",
          "092532.243000",
          "092532.246000",
          "092532.249000",
          "092532.252000",
          "092532.254000",
          "092532.257000",
          "092532.260000",
          "092532.263000",
          "092532.266000",
          "092532.269000",
          "092632.192000",
          "092632.196000",
          "092632.198000",
          "092632.201000",
          "092632.210000",
          "092632.212000",
          "092632.215000",
          "092632.218000",
          "092632.221000",
          "092632.224000",
          "092632.227000",
          "092632.230000",
          "092632.233000",
          "092632.236000",
          "092632.239000",
          "092632.242000",
          "092632.250000",
          "092632.253000",
          "092632.256000",
          "092632.259000",
          "092632.262000",
          "092632.265000",
          "092632.268000",
          "092632.271000",
          "092632.274000",
          "092632.277000",
          "092732.192000",
          "092732.195000",
          "092732.198000",
          "092732.200000",
          "092732.203000",
          "092732.205000",
          "092732.208000",
          "092732.211000",
          "092732.214000",
          "092732.216000",
          "092732.219000",
          "092732.222000",
          "092732.231000",
          "092732.234000",
          "092732.237000",
          "092732.239000",
          "092732.242000",
          "092732.245000",
          "092732.247000",
          "092732.251000",
          "092732.261000",
          "092732.263000",
          "092732.266000",
          "092732.269000",
          "092732.272000",
          "092732.275000",
          "092818.391000",
          "092818.394000",
          "092818.397000",
          "092818.400000",
          "092818.403000",
          "092818.406000",
          "092818.410000",
          "092818.414000",
          "092818.417000",
          "092818.420000",
          "092818.423000",
          "092818.432000",
          "092818.435000",
          "092818.438000",
          "092818.441000",
          "092818.444000",
          "092818.447000",
          "092818.450000",
          "092818.453000"
        ],
        "InstanceCreationTime": [
          "092432.199000",
          "092432.203000",
          "092432.206000",
          "092432.209000",
          "092432.212000",
          "092432.215000",
          "092432.218000",
          "092432.221000",
          "092432.224000",
          "092432.227000",
          "092432.229000",
          "092432.232000",
          "092432.235000",
          "092432.238000",
          "092432.241000",
          "092432.244000",
          "092432.247000",
          "092432.249000",
          "092432.252000",
          "092432.255000",
          "092432.258000",
          "092432.261000",
          "092432.264000",
          "092432.267000",
          "092432.270000",
          "092432.272000",
          "092432.275000",
          "092532.193000",
          "092532.197000",
          "092532.199000",
          "092532.202000",
          "092532.205000",
          "092532.207000",
          "092532.210000",
          "092532.213000",
          "092532.216000",
          "092532.219000",
          "092532.229000",
          "092532.232000",
          "092532.235000",
          "092532.237000",
          "092532.240000",
          "092532.243000",
          "092532.246000",
          "092532.249000",
          "092532.252000",
          "092532.254000",
          "092532.257000",
          "092532.260000",
          "092532.263000",
          "092532.266000",
          "092532.269000",
          "092632.192000",
          "092632.196000",
          "092632.198000",
          "092632.201000",
          "092632.210000",
          "092632.212000",
          "092632.215000",
          "092632.218000",
          "092632.221000",
          "092632.224000",
          "092632.227000",
          "092632.230000",
          "092632.233000",
          "092632.236000",
          "092632.239000",
          "092632.242000",
          "092632.250000",
          "092632.253000",
          "092632.256000",
          "092632.259000",
          "092632.262000",
          "092632.265000",
          "092632.268000",
          "092632.271000",
          "092632.274000",
          "092632.277000",
          "092732.192000",
          "092732.195000",
          "092732.198000",
          "092732.200000",
          "092732.203000",
          "092732.205000",
          "092732.208000",
          "092732.211000",
          "092732.214000",
          "092732.216000",
          "092732.219000",
          "092732.222000",
          "092732.231000",
          "092732.234000",
          "092732.237000",
          "092732.239000",
          "092732.242000",
          "092732.245000",
          "092732.247000",
          "092732.251000",
          "092732.261000",
          "092732.263000",
          "092732.266000",
          "092732.269000",
          "092732.272000",
          "092732.275000",
          "092818.391000",
          "092818.394000",
          "092818.397000",
          "092818.400000",
          "092818.403000",
          "092818.406000",
          "092818.410000",
          "092818.414000",
          "092818.417000",
          "092818.420000",
          "092818.423000",
          "092818.432000",
          "092818.435000",
          "092818.438000",
          "092818.441000",
          "092818.444000",
          "092818.447000",
          "092818.450000",
          "092818.453000"
        ],
        "InstanceNumber": [
          1,
          2,
          3,
          4,
          5,
          6,
          7,
          8,
          9,
          10,
          11,
          12,
          13,
          14,
          15,
          16,
          17,
          18,
          19,
          20,
          21,
          22,
          23,
          24,
          25,
          26,
          27,
          28,
          29,
          30,
          31,
          32,
          33,
          34,
          35,
          36,
          37,
          38,
          39,
          40,
          41,
          42,
          43,
          44,
          45,
          46,
          47,
          48,
          49,
          50,
          51,
          52,
          53,
          54,
          55,
          56,
          57,
          58,
          59,
          60,
          61,
          62,
          63,
          64,
          65,
          66,
          67,
          68,
          69,
          70,
          71,
          72,
          73,
          74,
          75,
          76,
          77,
          78,
          79,
          80,
          81,
          82,
          83,
          84,
          85,
          86,
          87,
          88,
          89,
          90,
          91,
          92,
          93,
          94,
          95,
          96,
          97,
          98,
          99,
          100,
          101,
          102,
          103,
          104,
          105,
          106,
          107,
          108,
          109,
          110,
          111,
          112,
          113,
          114,
          115,
          116,
          117,
          118,
          119,
          120,
          121,
          122,
          123
        ],
        "LargestImagePixelValue": [
          2533,
          2589,
          2653,
          2157,
          1828,
          1834,
          2354,
          2391,
          1943,
          1909,
          2057,
          2345,
          2215,
          2450,
          2271,
          1789,
          1941,
          2328,
          2357,
          1874,
          2346,
          2146,
          1917,
          2401,
          2517,
          2221,
          1885,
          2499,
          1936,
          1771,
          2345,
          2473,
          2462,
          2728,
          2238,
          1825,
          1898,
          2040,
          2107,
          2327,
          2255,
          1910,
          2284,
          1970,
          1852,
          2274,
          2284,
          2098,
          2366,
          2249,
          2082,
          1817,
          1965,
          2093,
          1898,
          2417,
          2455,
          2547,
          2475,
          1800,
          1873,
          2284,
          2585,
          2048,
          1784,
          2480,
          1981,
          2577,
          2296,
          1948,
          1835,
          1936,
          2351,
          2520,
          2396,
          2621,
          2305,
          2095,
          1858,
          2451,
          2029,
          1892,
          2384,
          1903,
          1818,
          2215,
          1812,
          2127,
          1844,
          2703,
          2406,
          1868,
          2263,
          1779,
          2317,
          2502,
          2373,
          1939,
          1909,
          2266,
          1942,
          1904,
          2453,
          2605,
          2406,
          2384,
          1838,
          1894,
          2391,
          2745,
          2023,
          2076,
          2411,
          2551,
          2410,
          2603,
          1886,
          2625,
          2485,
          2520,
          1812,
          1870,
          1938
        ],
        "WindowCenter": [
          850.0,
          849.0,
          849.0,
          848.0,
          848.0,
          847.0,
          851.0,
          847.0,
          844.0,
          850.0,
          849.0,
          852.0,
          848.0,
          847.0,
          846.0,
          847.0,
          847.0,
          848.0,
          849.0,
          847.0,
          848.0,
          849.0,
          848.0,
          850.0,
          847.0,
          847.0,
          846.0,
          850.0,
          850.0,
          847.0,
          850.0,
          852.0,
          847.0,
          849.0,
          848.0,
          848.0,
          849.0,
          849.0,
          847.0,
          847.0,
          845.0,
          846.0,
          848.0,
          848.0,
          847.0,
          849.0,
          850.0,
          849.0,
          847.0,
          847.0,
          846.0,
          850.0,
          849.0,
          849.0,
          847.0,
          850.0,
          851.0,
          849.0,
          848.0,
          846.0,
          846.0,
          848.0,
          849.0,
          846.0,
          845.0,
          850.0,
          847.0,
          847.0,
          847.0,
          846.0,
          851.0,
          849.0,
          849.0,
          851.0,
          849.0,
          849.0,
          848.0,
          849.0,
          846.0,
          846.0,
          852.0,
          853.0,
          851.0,
          852.0,
          848.0,
          850.0,
          848.0,
          851.0,
          852.0,
          852.0,
          850.0,
          849.0,
          851.0,
          849.0,
          851.0,
          851.0,
          850.0,
          850.0,
          851.0,
          853.0,
          852.0,
          852.0,
          854.0,
          852.0,
          849.0,
          847.0,
          845.0,
          847.0,
          849.0,
          850.0,
          851.0,
          851.0,
          851.0,
          851.0,
          851.0,
          852.0,
          850.0,
          851.0,
          851.0,
          849.0,
          848.0,
          849.0,
          849.0
        ],
        "WindowWidth": [
          1796.0,
          1793.0,
          1792.0,
          1789.0,
          1789.0,
          1787.0,
          1797.0,
          1787.0,
          1776.0,
          1796.0,
          1792.0,
          1799.0,
          1790.0,
          1788.0,
          1784.0,
          1786.0,
          1787.0,
          1790.0,
          1794.0,
          1787.0,
          1789.0,
          1794.0,
          1788.0,
          1795.0,
          1789.0,
          1788.0,
          1784.0,
          1795.0,
          1794.0,
          1786.0,
          1794.0,
          1800.0,
          1788.0,
          1793.0,
          1789.0,
          1788.0,
          1791.0,
          1792.0,
          1786.0,
          1786.0,
          1783.0,
          1785.0,
          1789.0,
          1789.0,
          1784.0,
          1793.0,
          1794.0,
          1794.0,
          1788.0,
          1786.0,
          1782.0,
          1793.0,
          1792.0,
          1793.0,
          1787.0,
          1795.0,
          1798.0,
          1793.0,
          1789.0,
          1786.0,
          1785.0,
          1790.0,
          1792.0,
          1785.0,
          1781.0,
          1795.0,
          1788.0,
          1786.0,
          1787.0,
          1785.0,
          1795.0,
          1792.0,
          1790.0,
          1798.0,
          1793.0,
          1795.0,
          1789.0,
          1792.0,
          1784.0,
          1788.0,
          1799.0,
          1802.0,
          1795.0,
          1798.0,
          1788.0,
          1793.0,
          1788.0,
          1798.0,
          1800.0,
          1801.0,
          1796.0,
          1792.0,
          1800.0,
          1791.0,
          1797.0,
          1799.0,
          1795.0,
          1793.0,
          1797.0,
          1803.0,
          1799.0,
          1799.0,
          1807.0,
          1801.0,
          1793.0,
          1790.0,
          1782.0,
          1788.0,
          1795.0,
          1797.0,
          1798.0,
          1797.0,
          1798.0,
          1797.0,
          1797.0,
          1800.0,
          1794.0,
          1799.0,
          1799.0,
          1794.0,
          1789.0,
          1791.0,
          1793.0
        ]
      },
      "slices": {}
    }
  },
  "dummy_trs": 0,
  "dvars_nstd": 39.03079339311472,
  "dvars_std": 1.365372382622951,
  "dvars_vstd": 1.159471174344262,
  "efc": 0.5990442514249468,
  "fber": 1582.9298095703125,
  "fd_mean": 0.541681619570414,
  "fd_num": 99,
  "fd_perc": 80.48780487804878,
  "fwhm_avg": 1.6887956259999732,
  "fwhm_x": 1.5750866666666665,
  "fwhm_y": 1.9048033333333334,
  "fwhm_z": 1.5864968779999196,
  "gcor": 0.0252997,
  "gsr_x": -0.011447710916399956,
  "gsr_y": 0.04448913782835007,
  "provenance": {
    "md5sum": "5e06b31f522ec26a54c106ddb595ca20",
    "settings": {
      "fd_thres": 0.2,
      "testing": false
    },
    "software": "mriqc",
    "version": "22.0.1",
    "webapi_port": null,
    "webapi_url": "https://mriqc.nimh.nih.gov/api/v1"
  },
  "size_t": 123,
  "size_x": 64,
  "size_y": 64,
  "size_z": 34,
  "snr": 6.847261697105633,
  "spacing_tr": 2.3399999141693115,
  "spacing_x": 3.0,
  "spacing_y": 3.0,
  "spacing_z": 3.3000001907348633,
  "summary_bg_k": 41.30451562548789,
  "summary_bg_mad": 9.727314787491435,
  "summary_bg_mean": 38.76522445678711,
  "summary_bg_median": 23.56097412109375,
  "summary_bg_n": 67208.0,
  "summary_bg_p05": 13.333333015441895,
  "summary_bg_p95": 115.00772132873522,
  "summary_bg_stdv": 52.11545944213867,
  "summary_fg_k": 2.2464101651285375,
  "summary_fg_mad": 138.20745669204487,
  "summary_fg_mean": 972.5196533203125,
  "summary_fg_median": 967.93896484375,
  "summary_fg_n": 37918.0,
  "summary_fg_p05": 769.236572265625,
  "summary_fg_p95": 1196.58447265625,
  "summary_fg_stdv": 141.35960388183594,
  "tsnr": 47.80008246190846
}