{
  "aor": 0.0080984126984127,
  "aqi": 0.01863316706349206,
  "bids_meta": {
    "AcquisitionMatrixPE": 64,
    "AcquisitionNumber": 1,
    "AcquisitionTime": "13:57:44.590000",
    "BandwidthPerPixelPhaseEncode": 24.038,
    "BaseResolution": 64,
    "BodyPartExamined": "HEAD",
    "ConsistencyInfo": "N4_VD13A_LATEST_20120616",
    "ConversionSoftware": "dcm2niix",
    "ConversionSoftwareVersion": "v1.0.20181125  GCC6.3.0",
    "DerivedVendorReportedEchoSpacing": 0.000650012,
    "DeviceSerialNumber": "45250",
    "DwellTime": 4.6e-06,
    "EchoTime": 0.033,
    "EchoTrainLength": 64,
    "EffectiveEchoSpacing": 0.000650012,
    "FlipAngle": 90,
    "ImageOrientationPatientDICOM": [
      0.998422,
      -0.0375176,
      -0.0417822,
      0.020914,
      0.938967,
      -0.343371
    ],
    "ImageType": [
      "ORIGINAL",
      "PRIMARY",
      "M",
      "ND",
      "NORM",
      "MOSAIC"
    ],
    "ImagingFrequency": 123.214,
    "InPlanePhaseEncodingDirectionDICOM": "COL",
    "InstitutionAddress": "Kopernikusstr._26_Graz_Graz_AT_8010",
    "InstitutionName": "KFU",
    "InstitutionalDepartmentName": "Department",
    "MRAcquisitionType": "2D",
    "MagneticFieldStrength": 3,
    "Manufacturer": "Siemens",
    "ManufacturersModelName": "Skyra",
    "Modality": "MR",
    "PartialFourier": 1,
    "PatientPosition": "HFS",
    "PercentPhaseFOV": 100,
    "PhaseEncodingDirection": "j-",
    "PhaseEncodingSteps": 64,
    "PhaseResolution": 1,
    "PixelBandwidth": 1700,
    "ProcedureStepDescription": "KFU_Entw-Psy",
    "ProtocolName": "fMRI_1",
    "PulseSequenceDetails": "%SiemensSeq%_ep2d_pace",
    "ReceiveCoilActiveElements": "HE1-4",
    "ReceiveCoilName": "HeadNeck_20",
    "ReconMatrixPE": 64,
    "RepetitionTime": 2.34,
    "SAR": 0.147178,
    "ScanOptions": "FS",
    "ScanningSequence": "EP",
    "SequenceName": "_epfid2d1_64",
    "SequenceVariant": "SK",
    "SeriesDescription": "fMRI_1",
    "SeriesNumber": 2,
    "ShimSetting": [
      -1560,
      -3524,
      -4468,
      318,
      502,
      185,
      41,
      -328
    ],
    "SliceThickness": 3,
    "SliceTiming": [
      2.2525,
      2.185,
      2.115,
      2.0475,
      1.98,
      1.91,
      1.8425,
      1.775,
      1.705,
      1.6375,
      1.57,
      1.5025,
      1.4325,
      1.365,
      1.2975,
      1.2275,
      1.16,
      1.0925,
      1.025,
      0.955,
      0.8875,
      0.82,
      0.75,
      0.6825,
      0.615,
      0.5475,
      0.4775,
      0.41,
      0.3425,
      0.2725,
      0.205,
      0.1375,
      0.0675,
      0
    ],
    "SoftwareVersions": "syngo_MR_D13",
    "SpacingBetweenSlices": 3.3,
    "StationName": "FBMTMR1",
    "TaskName": "read",
    "TotalReadoutTime": 0.0409508,
    "TxRefAmp": 326.642,
    "dataset": "ds003126",
    "dcmmeta_affine": [
      [
        -2.9952661991119385,
        0.06274189054965973,
        -0.1719781905412674,
        92.10060119628906
      ],
      [
        0.11255279183387756,
        2.8169007301330566,
        -1.1284534931182861,
        -104.97016906738281
      ],
      [
        -0.12534672021865845,
        1.030113697052002,
        3.0962908267974854,
        -58.40512466430664
      ],
      [
        0.0,
        0.0,
        0.0,
        1.0
      ]
    ],
    "dcmmeta_reorient_transform": [
      [
        0.0,
        -1.0,
        0.0,
        63.0
      ],
      [
        1.0,
        0.0,
        0.0,
        0.0
      ],
      [
        0.0,
        0.0,
        1.0,
        0.0
      ],
      [
        0.0,
        0.0,
        0.0,
        1.0
      ]
    ],
    "dcmmeta_shape": [
      64,
      64,
      34,
      126
    ],
    "dcmmeta_slice_dim": 2,
    "dcmmeta_version": 0.6,
    "global": {
      "const": {
        "AcquisitionMatrix": [
          64,
          0,
          0,
          64
        ],
        "AngioFlag": "N",
        "BitsAllocated": 16,
        "BitsStored": 12,
        "BodyPartExamined": "HEAD",
        "Columns": 384,
        "EchoNumbers": 1,
        "EchoTime": 33.0,
        "EchoTrainLength": 64,
        "FlipAngle": 90.0,
        "HighBit": 11,
        "ImageOrientationPatient": [
          0.9984220923188,
          -0.0375175970706,
          -0.0417822388078,
          0.02091396289949,
          0.93896688285909,
          -0.3433712262985
        ],
        "ImagePositionPatient": [
          -585.33464961001,
          -505.19022532072,
          191.36569936803
        ],
        "ImageType": [
          "ORIGINAL",
          "PRIMARY",
          "M",
          "ND",
          "NORM",
          "MOSAIC"
        ],
        "ImagedNucleus": "1H",
        "ImagingFrequency": 123.214126,
        "InPlanePhaseEncodingDirection": "COL",
        "MRAcquisitionType": "2D",
        "MagneticFieldStrength": 3.0,
        "Manufacturer": "SIEMENS",
        "ManufacturerModelName": "Skyra",
        "Modality": "MR",
        "NumberOfAverages": 1.0,
        "NumberOfPhaseEncodingSteps": 64,
        "PercentPhaseFieldOfView": 100.0,
        "PercentSampling": 100.0,
        "PerformedProcedureStepStartTime": "134303.459000",
        "PhotometricInterpretation": "MONOCHROME2",
        "PixelBandwidth": 1700.0,
        "PixelRepresentation": 0,
        "PixelSpacing": [
          3.0,
          3.0
        ],
        "ProtocolName": "fMRI_1",
        "RepetitionTime": 2340.0,
        "Rows": 384,
        "SAR": 0.14717805515311,
        "SamplesPerPixel": 1,
        "ScanOptions": "FS",
        "ScanningSequence": "EP",
        "SequenceName": "*epfid2d1_64",
        "SequenceVariant": "SK",
        "SeriesDescription": "fMRI_1",
        "SeriesNumber": 2,
        "SeriesTime": "135847.635000",
        "SliceLocation": -23.704422046139,
        "SliceThickness": 3.0,
        "SmallestImagePixelValue": 0,
        "SoftwareVersions": "syngo MR D13",
        "SpacingBetweenSlices": 3.3000000821909,
        "SpecificCharacterSet": "ISO_IR 100",
        "StudyID": "1",
        "StudyTime": "134303.404000",
        "TransmitCoilName": "Body",
        "VariableFlipAngleFlag": "N",
        "WindowCenterWidthExplanation": "Algo1",
        "dBdt": 0.0
      },
      "slices": {}
    },
    "modality": "bold",
    "run_id": 1,
    "session_id": "2",
    "subject_id": "047EPKL014050",
    "task_id": "read",
    "time": {
      "samples": {
        "AcquisitionNumber": [
          1,
          2,
          3,
          4,
          5,
          6,
          7,
          8,
          9,
          10,
          11,
          12,
          13,
          14,
          15,
          16,
          17,
          18,
          19,
          20,
          21,
          22,
          23,
          24,
          25,
          26,
          27,
          28,
          29,
          30,
          31,
          32,
          33,
          34,
          35,
          36,
          37,
          38,
          39,
          40,
          41,
          42,
          43,
          44,
          45,
          46,
          47,
          48,
          49,
          50,
          51,
          52,
          53,
          54,
          55,
          56,
          57,
          58,
          59,
          60,
          61,
          62,
          63,
          64,
          65,
          66,
          67,
          68,
          69,
          70,
          71,
          72,
          73,
          74,
          75,
          76,
          77,
          78,
          79,
          80,
          81,
          82,
          83,
          84,
          85,
          86,
          87,
          88,
          89,
          90,
          91,
          92,
          93,
          94,
          95,
          96,
          97,
          98,
          99,
          100,
          101,
          102,
          103,
          104,
          105,
          106,
          107,
          108,
          109,
          110,
          111,
          112,
          113,
          114,
          115,
          116,
          117,
          118,
          119,
          120,
          121,
          122,
          123,
          124,
          125,
          126
        ],
        "AcquisitionTime": [
          "135744.590000",
          "135746.930000",
          "135749.270000",
          "135751.610000",
          "135753.950000",
          "135756.290000",
          "135758.630000",
          "135800.970000",
          "135803.310000",
          "135805.650000",
          "135807.990000",
          "135810.330000",
          "135812.670000",
          "135815.010000",
          "135817.350000",
          "135819.690000",
          "135822.030000",
          "135824.370000",
          "135826.710000",
          "135829.050000",
          "135831.390000",
          "135833.730000",
          "135836.070000",
          "135838.410000",
          "135840.750000",
          "135843.090000",
          "135845.430000",
          "135847.770000",
          "135850.110000",
          "135852.450000",
          "135854.790000",
          "135857.130000",
          "135859.470000",
          "135901.810000",
          "135904.150000",
          "135906.490000",
          "135908.830000",
          "135911.170000",
          "135913.510000",
          "135915.850000",
          "135918.190000",
          "135920.530000",
          "135922.870000",
          "135925.210000",
          "135927.550000",
          "135929.890000",
          "135932.230000",
          "135934.570000",
          "135936.910000",
          "135939.250000",
          "135941.590000",
          "135943.930000",
          "135946.270000",
          "135948.610000",
          "135950.950000",
          "135953.290000",
          "135955.630000",
          "135957.970000",
          "140000.310000",
          "140002.650000",
          "140004.990000",
          "140007.330000",
          "140009.670000",
          "140012.010000",
          "140014.350000",
          "140016.690000",
          "140019.030000",
          "140021.370000",
          "140023.710000",
          "140026.050000",
          "140028.390000",
          "140030.730000",
          "140033.070000",
          "140035.410000",
          "140037.750000",
          "140040.090000",
          "140042.430000",
          "140044.770000",
          "140047.110000",
          "140049.450000",
          "140051.790000",
          "140054.130000",
          "140056.470000",
          "140058.810000",
          "140101.150000",
          "140103.490000",
          "140105.830000",
          "140108.170000",
          "140110.510000",
          "140112.850000",
          "140115.190000",
          "140117.530000",
          "140119.870000",
          "140122.210000",
          "140124.550000",
          "140126.890000",
          "140129.230000",
          "140131.570000",
          "140133.910000",
          "140136.250000",
          "140138.590000",
          "140140.930000",
          "140143.270000",
          "140145.610000",
          "140147.950000",
          "140150.290000",
          "140152.630000",
          "140154.970000",
          "140157.310000",
          "140159.650000",
          "140201.990000",
          "140204.330000",
          "140206.670000",
          "140209.010000",
          "140211.350000",
          "140213.690000",
          "140216.030000",
          "140218.370000",
          "140220.710000",
          "140223.050000",
          "140225.390000",
          "140227.730000",
          "140230.070000",
          "140232.410000",
          "140234.750000",
          "140237.090000"
        ],
        "ContentTime": [
          "135847.639000",
          "135847.643000",
          "135847.646000",
          "135847.657000",
          "135847.659000",
          "135847.662000",
          "135847.665000",
          "135847.667000",
          "135847.670000",
          "135847.673000",
          "135847.675000",
          "135847.678000",
          "135847.681000",
          "135847.683000",
          "135847.686000",
          "135847.689000",
          "135847.692000",
          "135847.694000",
          "135847.697000",
          "135847.700000",
          "135847.702000",
          "135847.705000",
          "135847.708000",
          "135847.710000",
          "135847.713000",
          "135847.716000",
          "135847.718000",
          "135947.633000",
          "135947.637000",
          "135947.639000",
          "135947.642000",
          "135947.645000",
          "135947.648000",
          "135947.650000",
          "135947.653000",
          "135947.656000",
          "135947.659000",
          "135947.662000",
          "135947.665000",
          "135947.667000",
          "135947.670000",
          "135947.673000",
          "135947.676000",
          "135947.679000",
          "135947.681000",
          "135947.684000",
          "135947.687000",
          "135947.690000",
          "135947.692000",
          "135947.695000",
          "135947.698000",
          "135947.701000",
          "135947.715000",
          "140047.632000",
          "140047.636000",
          "140047.638000",
          "140047.641000",
          "140047.644000",
          "140047.647000",
          "140047.650000",
          "140047.653000",
          "140047.656000",
          "140047.659000",
          "140047.662000",
          "140047.666000",
          "140047.668000",
          "140047.671000",
          "140047.674000",
          "140047.677000",
          "140047.684000",
          "140047.687000",
          "140047.691000",
          "140047.693000",
          "140047.697000",
          "140047.700000",
          "140047.703000",
          "140047.706000",
          "140047.709000",
          "140147.633000",
          "140147.636000",
          "140147.639000",
          "140147.642000",
          "140147.644000",
          "140147.647000",
          "140147.650000",
          "140147.652000",
          "140147.655000",
          "140147.658000",
          "140147.660000",
          "140147.663000",
          "140147.666000",
          "140147.668000",
          "140147.671000",
          "140147.673000",
          "140147.676000",
          "140147.679000",
          "140147.681000",
          "140147.684000",
          "140147.687000",
          "140147.690000",
          "140147.692000",
          "140147.695000",
          "140147.698000",
          "140147.700000",
          "140240.248000",
          "140240.251000",
          "140240.254000",
          "140240.256000",
          "140240.259000",
          "140240.263000",
          "140240.266000",
          "140240.269000",
          "140240.274000",
          "140240.277000",
          "140240.280000",
          "140240.283000",
          "140240.286000",
          "140240.289000",
          "140240.293000",
          "140240.297000",
          "140240.302000",
          "140240.305000",
          "140240.309000",
          "140240.313000",
          "140240.317000",
          "140240.321000"
        ],
        "InstanceCreationTime": [
          "135847.639000",
          "135847.643000",
          "135847.646000",
          "135847.657000",
          "135847.659000",
          "135847.662000",
          "135847.665000",
          "135847.667000",
          "135847.670000",
          "135847.673000",
          "135847.675000",
          "135847.678000",
          "135847.681000",
          "135847.683000",
          "135847.686000",
          "135847.689000",
          "135847.692000",
          "135847.694000",
          "135847.697000",
          "135847.700000",
          "135847.702000",
          "135847.705000",
          "135847.708000",
          "135847.710000",
          "135847.713000",
          "135847.716000",
          "135847.718000",
          "135947.633000",
          "135947.637000",
          "135947.639000",
          "135947.642000",
          "135947.645000",
          "135947.648000",
          "135947.650000",
          "135947.653000",
          "135947.656000",
          "135947.659000",
          "135947.662000",
          "135947.665000",
          "135947.667000",
          "135947.670000",
          "135947.673000",
          "135947.676000",
          "135947.679000",
          "135947.681000",
          "135947.684000",
          "135947.687000",
          "135947.690000",
          "135947.692000",
          "135947.695000",
          "135947.698000",
          "135947.701000",
          "135947.715000",
          "140047.632000",
          "140047.636000",
          "140047.638000",
          "140047.641000",
          "140047.644000",
          "140047.647000",
          "140047.650000",
          "140047.653000",
          "140047.656000",
          "140047.659000",
          "140047.662000",
          "140047.666000",
          "140047.668000",
          "140047.671000",
          "140047.674000",
          "140047.677000",
          "140047.684000",
          "140047.687000",
          "140047.691000",
          "140047.693000",
          "140047.697000",
          "140047.700000",
          "140047.703000",
          "140047.706000",
          "140047.709000",
          "140147.633000",
          "140147.636000",
          "140147.639000",
          "140147.642000",
          "140147.644000",
          "140147.647000",
          "140147.650000",
          "140147.652000",
          "140147.655000",
          "140147.658000",
          "140147.660000",
          "140147.663000",
          "140147.666000",
          "140147.668000",
          "140147.671000",
          "140147.673000",
          "140147.676000",
          "140147.679000",
          "140147.681000",
          "140147.684000",
          "140147.687000",
          "140147.690000",
          "140147.692000",
          "140147.695000",
          "140147.698000",
          "140147.700000",
          "140240.248000",
          "140240.251000",
          "140240.254000",
          "140240.256000",
          "140240.259000",
          "140240.263000",
          "140240.266000",
          "140240.269000",
          "140240.274000",
          "140240.277000",
          "140240.280000",
          "140240.283000",
          "140240.286000",
          "140240.289000",
          "140240.293000",
          "140240.297000",
          "140240.302000",
          "140240.305000",
          "140240.309000",
          "140240.313000",
          "140240.317000",
          "140240.321000"
        ],
        "InstanceNumber": [
          1,
          2,
          3,
          4,
          5,
          6,
          7,
          8,
          9,
          10,
          11,
          12,
          13,
          14,
          15,
          16,
          17,
          18,
          19,
          20,
          21,
          22,
          23,
          24,
          25,
          26,
          27,
          28,
          29,
          30,
          31,
          32,
          33,
          34,
          35,
          36,
          37,
          38,
          39,
          40,
          41,
          42,
          43,
          44,
          45,
          46,
          47,
          48,
          49,
          50,
          51,
          52,
          53,
          54,
          55,
          56,
          57,
          58,
          59,
          60,
          61,
          62,
          63,
          64,
          65,
          66,
          67,
          68,
          69,
          70,
          71,
          72,
          73,
          74,
          75,
          76,
          77,
          78,
          79,
          80,
          81,
          82,
          83,
          84,
          85,
          86,
          87,
          88,
          89,
          90,
          91,
          92,
          93,
          94,
          95,
          96,
          97,
          98,
          99,
          100,
          101,
          102,
          103,
          104,
          105,
          106,
          107,
          108,
          109,
          110,
          111,
          112,
          113,
          114,
          115,
          116,
          117,
          118,
          119,
          120,
          121,
          122,
          123,
          124,
          125,
          126
        ],
        "LargestImagePixelValue": [
          1442,
          1776,
          1442,
          1327,
          1508,
          1333,
          1404,
          1586,
          1339,
          1336,
          1410,
          1359,
          1372,
          1339,
          1321,
          1583,
          1713,
          1295,
          1359,
          1410,
          1325,
          1393,
          1328,
          1327,
          1433,
          1373,
          1337,
          1330,
          1314,
          1320,
          1352,
          1332,
          1326,
          1320,
          1332,
          1409,
          1510,
          1344,
          1500,
          1371,
          1732,
          1793,
          1329,
          1377,
          1342,
          1508,
          1289,
          1302,
          1332,
          1696,
          1323,
          1331,
          1295,
          1355,
          1303,
          1513,
          1316,
          1362,
          1413,
          1344,
          1361,
          1441,
          1330,
          1312,
          1354,
          1340,
          1331,
          1324,
          1381,
          1377,
          1551,
          1335,
          1325,
          1578,
          1328,
          1354,
          1363,
          1372,
          1328,
          1548,
          1482,
          1323,
          1370,
          1322,
          1346,
          1600,
          1324,
          1539,
          1334,
          1374,
          1472,
          1562,
          1360,
          1311,
          1325,
          1434,
          1363,
          1445,
          1333,
          1345,
          1327,
          1366,
          1332,
          1319,
          1451,
          1302,
          1518,
          1398,
          1328,
          1351,
          1604,
          1338,
          1313,
          1349,
          1393,
          1284,
          1802,
          1356,
          1334,
          1486,
          1518,
          1339,
          1378,
          1351,
          1345,
          1350
        ],
        "WindowCenter": [
          660.0,
          660.0,
          660.0,
          659.0,
          660.0,
          657.0,
          657.0,
          658.0,
          659.0,
          661.0,
          657.0,
          657.0,
          656.0,
          658.0,
          659.0,
          659.0,
          657.0,
          655.0,
          655.0,
          657.0,
          656.0,
          657.0,
          659.0,
          660.0,
          657.0,
          657.0,
          653.0,
          655.0,
          653.0,
          655.0,
          656.0,
          656.0,
          657.0,
          656.0,
          658.0,
          660.0,
          659.0,
          658.0,
          660.0,
          657.0,
          657.0,
          654.0,
          653.0,
          656.0,
          655.0,
          662.0,
          656.0,
          658.0,
          659.0,
          660.0,
          656.0,
          658.0,
          660.0,
          659.0,
          656.0,
          659.0,
          657.0,
          660.0,
          661.0,
          659.0,
          658.0,
          660.0,
          658.0,
          659.0,
          660.0,
          658.0,
          663.0,
          662.0,
          660.0,
          662.0,
          662.0,
          660.0,
          662.0,
          661.0,
          660.0,
          661.0,
          660.0,
          661.0,
          661.0,
          664.0,
          660.0,
          659.0,
          659.0,
          662.0,
          661.0,
          663.0,
          658.0,
          662.0,
          659.0,
          661.0,
          659.0,
          660.0,
          657.0,
          656.0,
          659.0,
          663.0,
          660.0,
          660.0,
          659.0,
          663.0,
          661.0,
          662.0,
          663.0,
          663.0,
          665.0,
          661.0,
          663.0,
          659.0,
          659.0,
          660.0,
          664.0,
          662.0,
          663.0,
          665.0,
          664.0,
          664.0,
          666.0,
          662.0,
          663.0,
          665.0,
          664.0,
          662.0,
          661.0,
          661.0,
          661.0,
          662.0
        ],
        "WindowWidth": [
          1365.0,
          1366.0,
          1365.0,
          1362.0,
          1367.0,
          1358.0,
          1359.0,
          1361.0,
          1363.0,
          1367.0,
          1360.0,
          1358.0,
          1358.0,
          1361.0,
          1363.0,
          1363.0,
          1361.0,
          1355.0,
          1355.0,
          1359.0,
          1357.0,
          1359.0,
          1363.0,
          1366.0,
          1359.0,
          1361.0,
          1352.0,
          1354.0,
          1350.0,
          1355.0,
          1357.0,
          1358.0,
          1358.0,
          1358.0,
          1362.0,
          1364.0,
          1364.0,
          1362.0,
          1366.0,
          1359.0,
          1359.0,
          1353.0,
          1350.0,
          1357.0,
          1356.0,
          1370.0,
          1358.0,
          1362.0,
          1363.0,
          1365.0,
          1357.0,
          1363.0,
          1365.0,
          1364.0,
          1357.0,
          1363.0,
          1360.0,
          1366.0,
          1367.0,
          1363.0,
          1362.0,
          1366.0,
          1361.0,
          1364.0,
          1367.0,
          1362.0,
          1372.0,
          1370.0,
          1365.0,
          1370.0,
          1368.0,
          1367.0,
          1369.0,
          1368.0,
          1366.0,
          1368.0,
          1366.0,
          1368.0,
          1368.0,
          1373.0,
          1367.0,
          1363.0,
          1364.0,
          1370.0,
          1367.0,
          1372.0,
          1363.0,
          1369.0,
          1364.0,
          1368.0,
          1364.0,
          1366.0,
          1360.0,
          1359.0,
          1365.0,
          1373.0,
          1365.0,
          1366.0,
          1364.0,
          1372.0,
          1368.0,
          1370.0,
          1373.0,
          1372.0,
          1376.0,
          1368.0,
          1372.0,
          1365.0,
          1363.0,
          1367.0,
          1374.0,
          1369.0,
          1372.0,
          1376.0,
          1374.0,
          1376.0,
          1379.0,
          1369.0,
          1373.0,
          1376.0,
          1373.0,
          1371.0,
          1369.0,
          1369.0,
          1368.0,
          1371.0
        ]
      },
      "slices": {}
    }
  },
  "dummy_trs": 0,
  "dvars_nstd": 39.904545287919994,
  "dvars_std": 1.2928835605600002,
  "dvars_vstd": 1.0766938550399996,
  "efc": 0.5713503772215192,
  "fber": 1611.660888671875,
  "fd_mean": 0.6165271834596638,
  "fd_num": 109,
  "fd_perc": 86.5079365079365,
  "fwhm_avg": 1.6272826976121442,
  "fwhm_x": 1.5395366666666668,
  "fwhm_y": 1.8027933333333335,
  "fwhm_z": 1.5395180928364323,
  "gcor": 0.0629258,
  "gsr_x": -0.007022429257631302,
  "gsr_y": 0.0446552149951458,
  "provenance": {
    "md5sum": "b960a723d9d60ab0923693d445733428",
    "settings": {
      "fd_thres": 0.2,
      "testing": false
    },
    "software": "mriqc",
    "version": "22.0.1",
    "webapi_port": null,
    "webapi_url": "https://mriqc.nimh.nih.gov/api/v1"
  },
  "size_t": 126,
  "size_x": 64,
  "size_y": 64,
  "size_z": 34,
  "snr": 7.096176883647574,
  "spacing_tr": 2.3399999141693115,
  "spacing_x": 3.0,
  "spacing_y": 3.0,
  "spacing_z": 3.3000001907348633,
  "summary_bg_k": 66.2468357300572,
  "summary_bg_mad": 6.859977627395117,
  "summary_bg_mean": 26.110145568847656,
  "summary_bg_median": 16.611112594604492,
  "summary_bg_n": 72568.0,
  "summary_bg_p05": 9.182539939880371,
  "summary_bg_p95": 68.94960784912105,
  "summary_bg_stdv": 36.835662841796875,
  "summary_fg_k": 2.0686200705318516,
  "summary_fg_mad": 97.26337486224354,
  "summary_fg_mean": 683.9818115234375,
  "summary_fg_median": 680.77783203125,
  "summary_fg_n": 34349.0,
  "summary_fg_p05": 547.4000244140625,
  "summary_fg_p95": 831.2540283203125,
  "summary_fg_stdv": 95.93446350097656,
  "tsnr": 48.005214003962465
}