{
  "aor": 0.004983467741935484,
  "aqi": 0.01275761435483871,
  "bids_meta": {
    "AcquisitionMatrixPE": 64,
    "AcquisitionNumber": 1,
    "AcquisitionTime": "12:45:17.357500",
    "BandwidthPerPixelPhaseEncode": 24.038,
    "BaseResolution": 64,
    "BodyPartExamined": "HEAD",
    "ConsistencyInfo": "N4_VD13A_LATEST_20120616",
    "ConversionSoftware": "dcm2niix",
    "ConversionSoftwareVersion": "v1.0.20181125  GCC6.3.0",
    "DerivedVendorReportedEchoSpacing": 0.000650012,
    "DeviceSerialNumber": "45250",
    "DwellTime": 4.6e-06,
    "EchoTime": 0.033,
    "EchoTrainLength": 64,
    "EffectiveEchoSpacing": 0.000650012,
    "FlipAngle": 90,
    "ImageOrientationPatientDICOM": [
      0.999923,
      -0.00150172,
      0.0123012,
      0.00349042,
      0.986573,
      -0.163285
    ],
    "ImageType": [
      "ORIGINAL",
      "PRIMARY",
      "M",
      "ND",
      "NORM",
      "MOSAIC"
    ],
    "ImagingFrequency": 123.214,
    "InPlanePhaseEncodingDirectionDICOM": "COL",
    "InstitutionAddress": "Kopernikusstr._26_Graz_Graz_AT_8010",
    "InstitutionName": "KFU",
    "InstitutionalDepartmentName": "Department",
    "MRAcquisitionType": "2D",
    "MagneticFieldStrength": 3,
    "Manufacturer": "Siemens",
    "ManufacturersModelName": "Skyra",
    "Modality": "MR",
    "PartialFourier": 1,
    "PatientPosition": "HFS",
    "PercentPhaseFOV": 100,
    "PhaseEncodingDirection": "j-",
    "PhaseEncodingSteps": 64,
    "PhaseResolution": 1,
    "PixelBandwidth": 1700,
    "ProcedureStepDescription": "KFU_Entw-Psy",
    "ProtocolName": "fMRI_3",
    "PulseSequenceDetails": "%SiemensSeq%_ep2d_pace",
    "ReceiveCoilActiveElements": "HE1-4",
    "ReceiveCoilName": "HeadNeck_20",
    "ReconMatrixPE": 64,
    "RepetitionTime": 2.34,
    "SAR": 0.264147,
    "ScanOptions": "FS",
    "ScanningSequence": "EP",
    "SequenceName": "_epfid2d1_64",
    "SequenceVariant": "SK",
    "SeriesDescription": "fMRI_3",
    "SeriesNumber": 8,
    "ShimSetting": [
      -1551,
      -3688,
      -4340,
      502,
      376,
      130,
      311,
      -439
    ],
    "SliceThickness": 3,
    "SliceTiming": [
      2.25,
      2.1825,
      2.115,
      2.045,
      1.9775,
      1.91,
      1.84,
      1.7725,
      1.705,
      1.6375,
      1.5675,
      1.5,
      1.4325,
      1.3625,
      1.295,
      1.2275,
      1.16,
      1.09,
      1.0225,
      0.955,
      0.885,
      0.8175,
      0.75,
      0.68,
      0.6125,
      0.545,
      0.4775,
      0.4075,
      0.34,
      0.2725,
      0.2025,
      0.135,
      0.0675,
      0
    ],
    "SoftwareVersions": "syngo_MR_D13",
    "SpacingBetweenSlices": 3.3,
    "StationName": "FBMTMR1",
    "TaskName": "read",
    "TotalReadoutTime": 0.0409508,
    "TxRefAmp": 384.401,
    "dataset": "ds003126",
    "dcmmeta_affine": [
      [
        -2.999769687652588,
        0.01047124806791544,
        0.039239656180143356,
        97.2734375
      ],
      [
        0.004505152348428965,
        2.9597184658050537,
        -0.5389397144317627,
        -113.07286071777344
      ],
      [
        0.03690354898571968,
        0.48985400795936584,
        3.255457639694214,
        -22.468997955322266
      ],
      [
        0.0,
        0.0,
        0.0,
        1.0
      ]
    ],
    "dcmmeta_reorient_transform": [
      [
        0.0,
        -1.0,
        0.0,
        63.0
      ],
      [
        1.0,
        0.0,
        0.0,
        0.0
      ],
      [
        0.0,
        0.0,
        1.0,
        0.0
      ],
      [
        0.0,
        0.0,
        0.0,
        1.0
      ]
    ],
    "dcmmeta_shape": [
      64,
      64,
      34,
      124
    ],
    "dcmmeta_slice_dim": 2,
    "dcmmeta_version": 0.6,
    "global": {
      "const": {
        "AcquisitionMatrix": [
          64,
          0,
          0,
          64
        ],
        "AngioFlag": "N",
        "BitsAllocated": 16,
        "BitsStored": 12,
        "BodyPartExamined": "HEAD",
        "Columns": 384,
        "EchoNumbers": 1,
        "EchoTime": 33.0,
        "EchoTrainLength": 64,
        "FlipAngle": 90.0,
        "HighBit": 11,
        "ImageOrientationPatient": [
          0.99992320992538,
          -0.0015017173879,
          0.01230118276472,
          0.00349041613755,
          0.98657282251535,
          -0.1632846682003
        ],
        "ImagePositionPatient": [
          -579.57166979774,
          -546.22353116887,
          80.863877976483
        ],
        "ImageType": [
          "ORIGINAL",
          "PRIMARY",
          "M",
          "ND",
          "NORM",
          "MOSAIC"
        ],
        "ImagedNucleus": "1H",
        "ImagingFrequency": 123.214328,
        "InPlanePhaseEncodingDirection": "COL",
        "MRAcquisitionType": "2D",
        "MagneticFieldStrength": 3.0,
        "Manufacturer": "SIEMENS",
        "ManufacturerModelName": "Skyra",
        "Modality": "MR",
        "NumberOfAverages": 1.0,
        "NumberOfPhaseEncodingSteps": 64,
        "PercentPhaseFieldOfView": 100.0,
        "PercentSampling": 100.0,
        "PerformedProcedureStepStartTime": "122658.948000",
        "PhotometricInterpretation": "MONOCHROME2",
        "PixelBandwidth": 1700.0,
        "PixelRepresentation": 0,
        "PixelSpacing": [
          3.0,
          3.0
        ],
        "ProtocolName": "fMRI_3",
        "RepetitionTime": 2340.0,
        "Rows": 384,
        "SAR": 0.26414746252245,
        "SamplesPerPixel": 1,
        "ScanOptions": "FS",
        "ScanningSequence": "EP",
        "SequenceName": "*epfid2d1_64",
        "SequenceVariant": "SK",
        "SeriesDescription": "fMRI_3",
        "SeriesNumber": 8,
        "SeriesTime": "124543.418000",
        "SliceLocation": -2.542556100864,
        "SliceThickness": 3.0,
        "SmallestImagePixelValue": 0,
        "SoftwareVersions": "syngo MR D13",
        "SpacingBetweenSlices": 3.3000000141821,
        "SpecificCharacterSet": "ISO_IR 100",
        "StudyID": "1",
        "StudyTime": "122658.891000",
        "TransmitCoilName": "Body",
        "VariableFlipAngleFlag": "N",
        "WindowCenterWidthExplanation": "Algo1",
        "dBdt": 0.0
      },
      "slices": {}
    },
    "modality": "bold",
    "run_id": 3,
    "session_id": "2",
    "subject_id": "047EPKL014036",
    "task_id": "read",
    "time": {
      "samples": {
        "AcquisitionNumber": [
          1,
          2,
          3,
          4,
          5,
          6,
          7,
          8,
          9,
          10,
          11,
          12,
          13,
          14,
          15,
          16,
          17,
          18,
          19,
          20,
          21,
          22,
          23,
          24,
          25,
          26,
          27,
          28,
          29,
          30,
          31,
          32,
          33,
          34,
          35,
          36,
          37,
          38,
          39,
          40,
          41,
          42,
          43,
          44,
          45,
          46,
          47,
          48,
          49,
          50,
          51,
          52,
          53,
          54,
          55,
          56,
          57,
          58,
          59,
          60,
          61,
          62,
          63,
          64,
          65,
          66,
          67,
          68,
          69,
          70,
          71,
          72,
          73,
          74,
          75,
          76,
          77,
          78,
          79,
          80,
          81,
          82,
          83,
          84,
          85,
          86,
          87,
          88,
          89,
          90,
          91,
          92,
          93,
          94,
          95,
          96,
          97,
          98,
          99,
          100,
          101,
          102,
          103,
          104,
          105,
          106,
          107,
          108,
          109,
          110,
          111,
          112,
          113,
          114,
          115,
          116,
          117,
          118,
          119,
          120,
          121,
          122,
          123,
          124
        ],
        "AcquisitionTime": [
          "124517.357500",
          "124519.697500",
          "124522.037500",
          "124524.377500",
          "124526.717500",
          "124529.057500",
          "124531.397500",
          "124533.737500",
          "124536.077500",
          "124538.417500",
          "124540.757500",
          "124543.097500",
          "124545.437500",
          "124547.777500",
          "124550.117500",
          "124552.457500",
          "124554.797500",
          "124557.137500",
          "124559.477500",
          "124601.817500",
          "124604.157500",
          "124606.497500",
          "124608.837500",
          "124611.177500",
          "124613.517500",
          "124615.857500",
          "124618.197500",
          "124620.537500",
          "124622.877500",
          "124625.217500",
          "124627.557500",
          "124629.897500",
          "124632.237500",
          "124634.577500",
          "124636.917500",
          "124639.257500",
          "124641.597500",
          "124643.937500",
          "124646.277500",
          "124648.617500",
          "124650.957500",
          "124653.297500",
          "124655.637500",
          "124657.977500",
          "124700.317500",
          "124702.657500",
          "124704.997500",
          "124707.337500",
          "124709.677500",
          "124712.017500",
          "124714.357500",
          "124716.697500",
          "124719.037500",
          "124721.377500",
          "124723.717500",
          "124726.057500",
          "124728.397500",
          "124730.737500",
          "124733.077500",
          "124735.417500",
          "124737.757500",
          "124740.097500",
          "124742.437500",
          "124744.777500",
          "124747.117500",
          "124749.457500",
          "124751.797500",
          "124754.137500",
          "124756.477500",
          "124758.817500",
          "124801.157500",
          "124803.497500",
          "124805.837500",
          "124808.177500",
          "124810.517500",
          "124812.857500",
          "124815.197500",
          "124817.537500",
          "124819.877500",
          "124822.217500",
          "124824.557500",
          "124826.897500",
          "124829.237500",
          "124831.577500",
          "124833.917500",
          "124836.257500",
          "124838.597500",
          "124840.937500",
          "124843.277500",
          "124845.617500",
          "124847.957500",
          "124850.297500",
          "124852.637500",
          "124854.977500",
          "124857.317500",
          "124859.657500",
          "124901.997500",
          "124904.337500",
          "124906.677500",
          "124909.017500",
          "124911.357500",
          "124913.697500",
          "124916.037500",
          "124918.377500",
          "124920.717500",
          "124923.057500",
          "124925.397500",
          "124927.737500",
          "124930.077500",
          "124932.417500",
          "124934.757500",
          "124937.097500",
          "124939.437500",
          "124941.777500",
          "124944.117500",
          "124946.457500",
          "124948.797500",
          "124951.137500",
          "124953.477500",
          "124955.817500",
          "124958.157500",
          "125000.497500",
          "125002.837500",
          "125005.177500"
        ],
        "ContentTime": [
          "124543.423000",
          "124543.426000",
          "124543.429000",
          "124543.432000",
          "124543.435000",
          "124543.437000",
          "124543.440000",
          "124543.443000",
          "124543.446000",
          "124543.448000",
          "124543.451000",
          "124543.453000",
          "124643.417000",
          "124643.420000",
          "124643.423000",
          "124643.426000",
          "124643.428000",
          "124643.431000",
          "124643.433000",
          "124643.436000",
          "124643.439000",
          "124643.441000",
          "124643.444000",
          "124643.447000",
          "124643.449000",
          "124643.452000",
          "124643.454000",
          "124643.457000",
          "124643.460000",
          "124643.462000",
          "124643.465000",
          "124643.468000",
          "124643.470000",
          "124643.473000",
          "124643.476000",
          "124643.478000",
          "124643.481000",
          "124743.416000",
          "124743.420000",
          "124743.422000",
          "124743.425000",
          "124743.435000",
          "124743.438000",
          "124743.440000",
          "124743.443000",
          "124743.446000",
          "124743.448000",
          "124743.451000",
          "124743.454000",
          "124743.464000",
          "124743.466000",
          "124743.469000",
          "124743.471000",
          "124743.474000",
          "124743.477000",
          "124743.479000",
          "124743.482000",
          "124743.485000",
          "124743.487000",
          "124743.490000",
          "124743.502000",
          "124743.505000",
          "124743.507000",
          "124843.417000",
          "124843.420000",
          "124843.422000",
          "124843.425000",
          "124843.428000",
          "124843.431000",
          "124843.433000",
          "124843.436000",
          "124843.439000",
          "124843.442000",
          "124843.444000",
          "124843.447000",
          "124843.450000",
          "124843.452000",
          "124843.455000",
          "124843.458000",
          "124843.460000",
          "124843.463000",
          "124843.466000",
          "124843.468000",
          "124843.471000",
          "124843.474000",
          "124843.476000",
          "124843.479000",
          "124843.482000",
          "124943.417000",
          "124943.421000",
          "124943.429000",
          "124943.432000",
          "124943.435000",
          "124943.438000",
          "124943.440000",
          "124943.443000",
          "124943.446000",
          "124943.449000",
          "124943.452000",
          "124943.455000",
          "124943.457000",
          "124943.460000",
          "124943.463000",
          "124943.466000",
          "124943.468000",
          "124943.471000",
          "124943.474000",
          "124943.477000",
          "124943.479000",
          "124943.482000",
          "124943.485000",
          "124943.488000",
          "124943.491000",
          "124943.494000",
          "125006.380000",
          "125006.383000",
          "125006.393000",
          "125006.398000",
          "125006.401000",
          "125006.404000",
          "125006.407000",
          "125006.410000",
          "125006.413000",
          "125006.416000"
        ],
        "InstanceCreationTime": [
          "124543.423000",
          "124543.426000",
          "124543.429000",
          "124543.432000",
          "124543.435000",
          "124543.437000",
          "124543.440000",
          "124543.443000",
          "124543.446000",
          "124543.448000",
          "124543.451000",
          "124543.453000",
          "124643.417000",
          "124643.420000",
          "124643.423000",
          "124643.426000",
          "124643.428000",
          "124643.431000",
          "124643.433000",
          "124643.436000",
          "124643.439000",
          "124643.441000",
          "124643.444000",
          "124643.447000",
          "124643.449000",
          "124643.452000",
          "124643.454000",
          "124643.457000",
          "124643.460000",
          "124643.462000",
          "124643.465000",
          "124643.468000",
          "124643.470000",
          "124643.473000",
          "124643.476000",
          "124643.478000",
          "124643.481000",
          "124743.416000",
          "124743.420000",
          "124743.422000",
          "124743.425000",
          "124743.435000",
          "124743.438000",
          "124743.440000",
          "124743.443000",
          "124743.446000",
          "124743.448000",
          "124743.451000",
          "124743.454000",
          "124743.464000",
          "124743.466000",
          "124743.469000",
          "124743.471000",
          "124743.474000",
          "124743.477000",
          "124743.479000",
          "124743.482000",
          "124743.485000",
          "124743.487000",
          "124743.490000",
          "124743.502000",
          "124743.505000",
          "124743.507000",
          "124843.417000",
          "124843.420000",
          "124843.422000",
          "124843.425000",
          "124843.428000",
          "124843.431000",
          "124843.433000",
          "124843.436000",
          "124843.439000",
          "124843.442000",
          "124843.444000",
          "124843.447000",
          "124843.450000",
          "124843.452000",
          "124843.455000",
          "124843.458000",
          "124843.460000",
          "124843.463000",
          "124843.466000",
          "124843.468000",
          "124843.471000",
          "124843.474000",
          "124843.476000",
          "124843.479000",
          "124843.482000",
          "124943.417000",
          "124943.421000",
          "124943.429000",
          "124943.432000",
          "124943.435000",
          "124943.438000",
          "124943.440000",
          "124943.443000",
          "124943.446000",
          "124943.449000",
          "124943.452000",
          "124943.455000",
          "124943.457000",
          "124943.460000",
          "124943.463000",
          "124943.466000",
          "124943.468000",
          "124943.471000",
          "124943.474000",
          "124943.477000",
          "124943.479000",
          "124943.482000",
          "124943.485000",
          "124943.488000",
          "124943.491000",
          "124943.494000",
          "125006.380000",
          "125006.383000",
          "125006.393000",
          "125006.398000",
          "125006.401000",
          "125006.404000",
          "125006.407000",
          "125006.410000",
          "125006.413000",
          "125006.416000"
        ],
        "InstanceNumber": [
          1,
          2,
          3,
          4,
          5,
          6,
          7,
          8,
          9,
          10,
          11,
          12,
          13,
          14,
          15,
          16,
          17,
          18,
          19,
          20,
          21,
          22,
          23,
          24,
          25,
          26,
          27,
          28,
          29,
          30,
          31,
          32,
          33,
          34,
          35,
          36,
          37,
          38,
          39,
          40,
          41,
          42,
          43,
          44,
          45,
          46,
          47,
          48,
          49,
          50,
          51,
          52,
          53,
          54,
          55,
          56,
          57,
          58,
          59,
          60,
          61,
          62,
          63,
          64,
          65,
          66,
          67,
          68,
          69,
          70,
          71,
          72,
          73,
          74,
          75,
          76,
          77,
          78,
          79,
          80,
          81,
          82,
          83,
          84,
          85,
          86,
          87,
          88,
          89,
          90,
          91,
          92,
          93,
          94,
          95,
          96,
          97,
          98,
          99,
          100,
          101,
          102,
          103,
          104,
          105,
          106,
          107,
          108,
          109,
          110,
          111,
          112,
          113,
          114,
          115,
          116,
          117,
          118,
          119,
          120,
          121,
          122,
          123,
          124
        ],
        "LargestImagePixelValue": [
          2105,
          2273,
          2249,
          1668,
          1903,
          2271,
          2588,
          2063,
          2112,
          2142,
          1939,
          2026,
          2489,
          2241,
          1788,
          1880,
          2060,
          1991,
          2136,
          1990,
          1872,
          2303,
          2043,
          2290,
          1862,
          2489,
          1790,
          1927,
          1654,
          1798,
          1908,
          2121,
          2406,
          1785,
          2455,
          1793,
          2032,
          2361,
          2113,
          1949,
          2288,
          2559,
          1761,
          1741,
          1745,
          1982,
          1688,
          2515,
          2012,
          2126,
          2493,
          2836,
          1927,
          2129,
          1913,
          1589,
          2268,
          1936,
          1730,
          2611,
          2072,
          1766,
          1916,
          2342,
          2207,
          1826,
          1903,
          1920,
          2402,
          2208,
          1599,
          1858,
          2388,
          2677,
          1946,
          2015,
          2605,
          1786,
          2138,
          1928,
          2166,
          1881,
          1878,
          1801,
          1842,
          2454,
          1799,
          2456,
          2125,
          1957,
          1717,
          2082,
          2240,
          2484,
          2332,
          2218,
          1818,
          2075,
          1839,
          2352,
          1930,
          1700,
          1721,
          2113,
          2101,
          2642,
          2593,
          2291,
          1929,
          2086,
          2423,
          2490,
          2440,
          2089,
          1673,
          1574,
          1895,
          1996,
          2464,
          2411,
          2221,
          2234,
          1754,
          1702
        ],
        "WindowCenter": [
          698.0,
          696.0,
          695.0,
          694.0,
          698.0,
          698.0,
          696.0,
          695.0,
          695.0,
          696.0,
          694.0,
          694.0,
          695.0,
          693.0,
          691.0,
          693.0,
          694.0,
          694.0,
          695.0,
          693.0,
          692.0,
          695.0,
          694.0,
          695.0,
          694.0,
          695.0,
          693.0,
          693.0,
          694.0,
          695.0,
          696.0,
          697.0,
          696.0,
          694.0,
          697.0,
          693.0,
          693.0,
          695.0,
          694.0,
          697.0,
          694.0,
          694.0,
          693.0,
          694.0,
          694.0,
          698.0,
          695.0,
          698.0,
          696.0,
          696.0,
          695.0,
          695.0,
          693.0,
          696.0,
          694.0,
          698.0,
          699.0,
          696.0,
          696.0,
          698.0,
          694.0,
          695.0,
          696.0,
          698.0,
          696.0,
          696.0,
          696.0,
          697.0,
          699.0,
          696.0,
          696.0,
          700.0,
          699.0,
          699.0,
          691.0,
          695.0,
          695.0,
          694.0,
          693.0,
          698.0,
          696.0,
          694.0,
          694.0,
          696.0,
          696.0,
          697.0,
          695.0,
          698.0,
          697.0,
          697.0,
          696.0,
          697.0,
          698.0,
          699.0,
          696.0,
          696.0,
          694.0,
          695.0,
          695.0,
          696.0,
          697.0,
          697.0,
          697.0,
          700.0,
          698.0,
          699.0,
          696.0,
          699.0,
          697.0,
          699.0,
          698.0,
          699.0,
          696.0,
          696.0,
          696.0,
          697.0,
          698.0,
          699.0,
          699.0,
          698.0,
          697.0,
          696.0,
          695.0,
          697.0
        ],
        "WindowWidth": [
          1474.0,
          1471.0,
          1467.0,
          1465.0,
          1474.0,
          1474.0,
          1470.0,
          1466.0,
          1468.0,
          1469.0,
          1465.0,
          1466.0,
          1469.0,
          1463.0,
          1457.0,
          1462.0,
          1466.0,
          1466.0,
          1468.0,
          1463.0,
          1461.0,
          1467.0,
          1465.0,
          1468.0,
          1465.0,
          1467.0,
          1463.0,
          1464.0,
          1467.0,
          1469.0,
          1470.0,
          1472.0,
          1469.0,
          1466.0,
          1472.0,
          1463.0,
          1464.0,
          1467.0,
          1465.0,
          1471.0,
          1464.0,
          1466.0,
          1463.0,
          1465.0,
          1465.0,
          1474.0,
          1469.0,
          1475.0,
          1470.0,
          1470.0,
          1468.0,
          1467.0,
          1463.0,
          1469.0,
          1464.0,
          1475.0,
          1478.0,
          1470.0,
          1471.0,
          1474.0,
          1466.0,
          1468.0,
          1471.0,
          1475.0,
          1470.0,
          1469.0,
          1471.0,
          1472.0,
          1477.0,
          1470.0,
          1471.0,
          1479.0,
          1477.0,
          1477.0,
          1459.0,
          1467.0,
          1468.0,
          1465.0,
          1463.0,
          1476.0,
          1470.0,
          1465.0,
          1465.0,
          1471.0,
          1470.0,
          1472.0,
          1467.0,
          1475.0,
          1473.0,
          1471.0,
          1469.0,
          1472.0,
          1476.0,
          1477.0,
          1470.0,
          1470.0,
          1466.0,
          1467.0,
          1467.0,
          1470.0,
          1472.0,
          1471.0,
          1474.0,
          1478.0,
          1475.0,
          1478.0,
          1471.0,
          1477.0,
          1473.0,
          1477.0,
          1474.0,
          1476.0,
          1471.0,
          1469.0,
          1469.0,
          1472.0,
          1475.0,
          1477.0,
          1478.0,
          1474.0,
          1471.0,
          1471.0,
          1468.0,
          1473.0
        ]
      },
      "slices": {}
    }
  },
  "dummy_trs": 0,
  "dvars_nstd": 37.4782515886992,
  "dvars_std": 1.3846006104065043,
  "dvars_vstd": 1.045141016422764,
  "efc": 0.5327027690298676,
  "fber": 1681.1055908203125,
  "fd_mean": 0.46759304203004826,
  "fd_num": 107,
  "fd_perc": 86.29032258064517,
  "fwhm_avg": 1.6990903106943331,
  "fwhm_x": 1.5802066666666665,
  "fwhm_y": 1.9258733333333333,
  "fwhm_z": 1.5911909320829989,
  "gcor": 0.0452032,
  "gsr_x": -0.0047252364456653595,
  "gsr_y": 0.03866621106863022,
  "provenance": {
    "md5sum": "da6cb25b0031e4234fd64f7df31b3e51",
    "settings": {
      "fd_thres": 0.2,
      "testing": false
    },
    "software": "mriqc",
    "version": "22.0.1",
    "webapi_port": null,
    "webapi_url": "https://mriqc.nimh.nih.gov/api/v1"
  },
  "size_t": 124,
  "size_x": 64,
  "size_y": 64,
  "size_z": 34,
  "snr": 6.552161630395976,
  "spacing_tr": 2.3399999141693115,
  "spacing_x": 3.0,
  "spacing_y": 3.0,
  "spacing_z": 3.299999952316284,
  "summary_bg_k": 46.85281076863199,
  "summary_bg_mad": 7.233663867525602,
  "summary_bg_mean": 30.8789119720459,
  "summary_bg_median": 18.717741012573242,
  "summary_bg_n": 79605.0,
  "summary_bg_p05": 10.338709831237793,
  "summary_bg_p95": 73.03225708007812,
  "summary_bg_stdv": 51.77745819091797,
  "summary_fg_k": 2.7578982852223533,
  "summary_fg_mad": 108.63644688532833,
  "summary_fg_mean": 785.764404296875,
  "summary_fg_median": 780.4031982421875,
  "summary_fg_n": 28662.0,
  "summary_fg_p05": 618.8068603515625,
  "summary_fg_p95": 976.828610229492,
  "summary_fg_stdv": 119.10414123535156,
  "tsnr": 56.58260480966419
}