{
  "aor": 0.006169212598425198,
  "aqi": 0.016847203307086615,
  "bids_meta": {
    "AcquisitionMatrixPE": 64,
    "AcquisitionNumber": 1,
    "AcquisitionTime": "14:05:17.430000",
    "BandwidthPerPixelPhaseEncode": 24.038,
    "BaseResolution": 64,
    "BodyPartExamined": "HEAD",
    "ConsistencyInfo": "N4_VD13A_LATEST_20120616",
    "ConversionSoftware": "dcm2niix",
    "ConversionSoftwareVersion": "v1.0.20181125  GCC6.3.0",
    "DerivedVendorReportedEchoSpacing": 0.000650012,
    "DeviceSerialNumber": "45250",
    "DwellTime": 4.6e-06,
    "EchoTime": 0.033,
    "EchoTrainLength": 64,
    "EffectiveEchoSpacing": 0.000650012,
    "FlipAngle": 90,
    "ImageOrientationPatientDICOM": [
      0.998422,
      -0.0375176,
      -0.0417822,
      0.020914,
      0.938967,
      -0.343371
    ],
    "ImageType": [
      "ORIGINAL",
      "PRIMARY",
      "M",
      "ND",
      "NORM",
      "MOSAIC"
    ],
    "ImagingFrequency": 123.214,
    "InPlanePhaseEncodingDirectionDICOM": "COL",
    "InstitutionAddress": "Kopernikusstr._26_Graz_Graz_AT_8010",
    "InstitutionName": "KFU",
    "InstitutionalDepartmentName": "Department",
    "MRAcquisitionType": "2D",
    "MagneticFieldStrength": 3,
    "Manufacturer": "Siemens",
    "ManufacturersModelName": "Skyra",
    "Modality": "MR",
    "PartialFourier": 1,
    "PatientPosition": "HFS",
    "PercentPhaseFOV": 100,
    "PhaseEncodingDirection": "j-",
    "PhaseEncodingSteps": 64,
    "PhaseResolution": 1,
    "PixelBandwidth": 1700,
    "ProcedureStepDescription": "KFU_Entw-Psy",
    "ProtocolName": "fMRI_2",
    "PulseSequenceDetails": "%SiemensSeq%_ep2d_pace",
    "ReceiveCoilActiveElements": "HE1-4",
    "ReceiveCoilName": "HeadNeck_20",
    "ReconMatrixPE": 64,
    "RepetitionTime": 2.34,
    "SAR": 0.147178,
    "ScanOptions": "FS",
    "ScanningSequence": "EP",
    "SequenceName": "_epfid2d1_64",
    "SequenceVariant": "SK",
    "SeriesDescription": "fMRI_2",
    "SeriesNumber": 7,
    "ShimSetting": [
      -1560,
      -3524,
      -4468,
      318,
      502,
      185,
      41,
      -328
    ],
    "SliceThickness": 3,
    "SliceTiming": [
      2.2525,
      2.185,
      2.115,
      2.0475,
      1.98,
      1.91,
      1.8425,
      1.775,
      1.705,
      1.6375,
      1.57,
      1.5025,
      1.4325,
      1.365,
      1.2975,
      1.2275,
      1.16,
      1.0925,
      1.025,
      0.955,
      0.8875,
      0.82,
      0.75,
      0.6825,
      0.615,
      0.545,
      0.4775,
      0.41,
      0.3425,
      0.2725,
      0.205,
      0.1375,
      0.0675,
      0
    ],
    "SoftwareVersions": "syngo_MR_D13",
    "SpacingBetweenSlices": 3.3,
    "StationName": "FBMTMR1",
    "TaskName": "read",
    "TotalReadoutTime": 0.0409508,
    "TxRefAmp": 326.642,
    "dataset": "ds003126",
    "dcmmeta_affine": [
      [
        -2.9952661991119385,
        0.06274189054965973,
        -0.1719781905412674,
        92.10060119628906
      ],
      [
        0.11255279183387756,
        2.8169007301330566,
        -1.1284534931182861,
        -104.97016906738281
      ],
      [
        -0.12534672021865845,
        1.030113697052002,
        3.0962908267974854,
        -58.40512466430664
      ],
      [
        0.0,
        0.0,
        0.0,
        1.0
      ]
    ],
    "dcmmeta_reorient_transform": [
      [
        0.0,
        -1.0,
        0.0,
        63.0
      ],
      [
        1.0,
        0.0,
        0.0,
        0.0
      ],
      [
        0.0,
        0.0,
        1.0,
        0.0
      ],
      [
        0.0,
        0.0,
        0.0,
        1.0
      ]
    ],
    "dcmmeta_shape": [
      64,
      64,
      34,
      127
    ],
    "dcmmeta_slice_dim": 2,
    "dcmmeta_version": 0.6,
    "global": {
      "const": {
        "AcquisitionMatrix": [
          64,
          0,
          0,
          64
        ],
        "AngioFlag": "N",
        "BitsAllocated": 16,
        "BitsStored": 12,
        "BodyPartExamined": "HEAD",
        "Columns": 384,
        "EchoNumbers": 1,
        "EchoTime": 33.0,
        "EchoTrainLength": 64,
        "FlipAngle": 90.0,
        "HighBit": 11,
        "ImageOrientationPatient": [
          0.9984220923188,
          -0.0375175970706,
          -0.0417822388078,
          0.02091396289949,
          0.93896688285909,
          -0.3433712262985
        ],
        "ImagePositionPatient": [
          -585.33464961001,
          -505.19022532072,
          191.36569936803
        ],
        "ImageType": [
          "ORIGINAL",
          "PRIMARY",
          "M",
          "ND",
          "NORM",
          "MOSAIC"
        ],
        "ImagedNucleus": "1H",
        "ImagingFrequency": 123.214136,
        "InPlanePhaseEncodingDirection": "COL",
        "MRAcquisitionType": "2D",
        "MagneticFieldStrength": 3.0,
        "Manufacturer": "SIEMENS",
        "ManufacturerModelName": "Skyra",
        "Modality": "MR",
        "NumberOfAverages": 1.0,
        "NumberOfPhaseEncodingSteps": 64,
        "PercentPhaseFieldOfView": 100.0,
        "PercentSampling": 100.0,
        "PerformedProcedureStepStartTime": "134303.459000",
        "PhotometricInterpretation": "MONOCHROME2",
        "PixelBandwidth": 1700.0,
        "PixelRepresentation": 0,
        "PixelSpacing": [
          3.0,
          3.0
        ],
        "ProtocolName": "fMRI_2",
        "RepetitionTime": 2340.0,
        "Rows": 384,
        "SAR": 0.14717805515311,
        "SamplesPerPixel": 1,
        "ScanOptions": "FS",
        "ScanningSequence": "EP",
        "SequenceName": "*epfid2d1_64",
        "SequenceVariant": "SK",
        "SeriesDescription": "fMRI_2",
        "SeriesNumber": 7,
        "SeriesTime": "140607.635000",
        "SliceLocation": -23.704422046139,
        "SliceThickness": 3.0,
        "SmallestImagePixelValue": 0,
        "SoftwareVersions": "syngo MR D13",
        "SpacingBetweenSlices": 3.3000000821909,
        "SpecificCharacterSet": "ISO_IR 100",
        "StudyID": "1",
        "StudyTime": "134303.404000",
        "TransmitCoilName": "Body",
        "VariableFlipAngleFlag": "N",
        "WindowCenterWidthExplanation": "Algo1",
        "dBdt": 0.0
      },
      "slices": {}
    },
    "modality": "bold",
    "run_id": 2,
    "session_id": "2",
    "subject_id": "047EPKL014050",
    "task_id": "read",
    "time": {
      "samples": {
        "AcquisitionNumber": [
          1,
          2,
          3,
          4,
          5,
          6,
          7,
          8,
          9,
          10,
          11,
          12,
          13,
          14,
          15,
          16,
          17,
          18,
          19,
          20,
          21,
          22,
          23,
          24,
          25,
          26,
          27,
          28,
          29,
          30,
          31,
          32,
          33,
          34,
          35,
          36,
          37,
          38,
          39,
          40,
          41,
          42,
          43,
          44,
          45,
          46,
          47,
          48,
          49,
          50,
          51,
          52,
          53,
          54,
          55,
          56,
          57,
          58,
          59,
          60,
          61,
          62,
          63,
          64,
          65,
          66,
          67,
          68,
          69,
          70,
          71,
          72,
          73,
          74,
          75,
          76,
          77,
          78,
          79,
          80,
          81,
          82,
          83,
          84,
          85,
          86,
          87,
          88,
          89,
          90,
          91,
          92,
          93,
          94,
          95,
          96,
          97,
          98,
          99,
          100,
          101,
          102,
          103,
          104,
          105,
          106,
          107,
          108,
          109,
          110,
          111,
          112,
          113,
          114,
          115,
          116,
          117,
          118,
          119,
          120,
          121,
          122,
          123,
          124,
          125,
          126,
          127
        ],
        "AcquisitionTime": [
          "140517.430000",
          "140519.770000",
          "140522.110000",
          "140524.450000",
          "140526.790000",
          "140529.130000",
          "140531.470000",
          "140533.810000",
          "140536.150000",
          "140538.490000",
          "140540.830000",
          "140543.170000",
          "140545.510000",
          "140547.850000",
          "140550.190000",
          "140552.530000",
          "140554.870000",
          "140557.210000",
          "140559.550000",
          "140601.890000",
          "140604.230000",
          "140606.570000",
          "140608.910000",
          "140611.250000",
          "140613.590000",
          "140615.930000",
          "140618.270000",
          "140620.610000",
          "140622.950000",
          "140625.290000",
          "140627.630000",
          "140629.970000",
          "140632.310000",
          "140634.650000",
          "140636.990000",
          "140639.330000",
          "140641.670000",
          "140644.010000",
          "140646.350000",
          "140648.690000",
          "140651.030000",
          "140653.370000",
          "140655.710000",
          "140658.050000",
          "140700.390000",
          "140702.730000",
          "140705.070000",
          "140707.410000",
          "140709.750000",
          "140712.090000",
          "140714.430000",
          "140716.770000",
          "140719.110000",
          "140721.450000",
          "140723.790000",
          "140726.130000",
          "140728.470000",
          "140730.810000",
          "140733.150000",
          "140735.490000",
          "140737.830000",
          "140740.170000",
          "140742.510000",
          "140744.850000",
          "140747.190000",
          "140749.530000",
          "140751.870000",
          "140754.210000",
          "140756.550000",
          "140758.890000",
          "140801.230000",
          "140803.570000",
          "140805.910000",
          "140808.250000",
          "140810.590000",
          "140812.930000",
          "140815.270000",
          "140817.610000",
          "140819.950000",
          "140822.290000",
          "140824.630000",
          "140826.970000",
          "140829.310000",
          "140831.650000",
          "140833.990000",
          "140836.330000",
          "140838.670000",
          "140841.010000",
          "140843.350000",
          "140845.690000",
          "140848.030000",
          "140850.370000",
          "140852.710000",
          "140855.050000",
          "140857.390000",
          "140859.730000",
          "140902.070000",
          "140904.410000",
          "140906.750000",
          "140909.090000",
          "140911.430000",
          "140913.770000",
          "140916.110000",
          "140918.450000",
          "140920.790000",
          "140923.130000",
          "140925.470000",
          "140927.810000",
          "140930.150000",
          "140932.490000",
          "140934.830000",
          "140937.170000",
          "140939.510000",
          "140941.850000",
          "140944.190000",
          "140946.530000",
          "140948.870000",
          "140951.210000",
          "140953.550000",
          "140955.890000",
          "140958.230000",
          "141000.570000",
          "141002.910000",
          "141005.250000",
          "141007.590000",
          "141009.930000",
          "141012.270000"
        ],
        "ContentTime": [
          "140607.640000",
          "140607.644000",
          "140607.647000",
          "140607.650000",
          "140607.653000",
          "140607.662000",
          "140607.665000",
          "140607.668000",
          "140607.671000",
          "140607.673000",
          "140607.676000",
          "140607.684000",
          "140607.687000",
          "140607.690000",
          "140607.693000",
          "140607.695000",
          "140607.698000",
          "140607.700000",
          "140607.703000",
          "140607.706000",
          "140607.709000",
          "140607.711000",
          "140707.635000",
          "140707.638000",
          "140707.641000",
          "140707.644000",
          "140707.647000",
          "140707.650000",
          "140707.653000",
          "140707.655000",
          "140707.658000",
          "140707.661000",
          "140707.664000",
          "140707.667000",
          "140707.670000",
          "140707.672000",
          "140707.676000",
          "140707.678000",
          "140707.681000",
          "140707.684000",
          "140707.687000",
          "140707.690000",
          "140707.693000",
          "140707.695000",
          "140707.698000",
          "140707.701000",
          "140707.704000",
          "140807.631000",
          "140807.635000",
          "140807.637000",
          "140807.640000",
          "140807.643000",
          "140807.646000",
          "140807.649000",
          "140807.651000",
          "140807.654000",
          "140807.657000",
          "140807.660000",
          "140807.662000",
          "140807.665000",
          "140807.681000",
          "140807.684000",
          "140807.687000",
          "140807.689000",
          "140807.692000",
          "140807.695000",
          "140807.697000",
          "140807.700000",
          "140807.702000",
          "140807.705000",
          "140807.708000",
          "140807.711000",
          "140807.713000",
          "140907.634000",
          "140907.637000",
          "140907.640000",
          "140907.643000",
          "140907.645000",
          "140907.648000",
          "140907.654000",
          "140907.657000",
          "140907.660000",
          "140907.662000",
          "140907.665000",
          "140907.668000",
          "140907.671000",
          "140907.673000",
          "140907.676000",
          "140907.679000",
          "140907.681000",
          "140907.684000",
          "140907.687000",
          "140907.690000",
          "140907.692000",
          "140907.695000",
          "140907.698000",
          "140907.701000",
          "140907.704000",
          "140907.706000",
          "141007.633000",
          "141007.636000",
          "141007.639000",
          "141007.642000",
          "141007.645000",
          "141007.648000",
          "141007.651000",
          "141007.653000",
          "141007.656000",
          "141007.659000",
          "141007.662000",
          "141007.665000",
          "141007.668000",
          "141007.670000",
          "141007.673000",
          "141007.676000",
          "141007.679000",
          "141007.682000",
          "141007.685000",
          "141007.688000",
          "141007.690000",
          "141007.693000",
          "141007.696000",
          "141007.699000",
          "141007.702000",
          "141014.351000",
          "141014.354000",
          "141014.357000"
        ],
        "InstanceCreationTime": [
          "140607.640000",
          "140607.644000",
          "140607.647000",
          "140607.650000",
          "140607.653000",
          "140607.662000",
          "140607.665000",
          "140607.668000",
          "140607.671000",
          "140607.673000",
          "140607.676000",
          "140607.684000",
          "140607.687000",
          "140607.690000",
          "140607.693000",
          "140607.695000",
          "140607.698000",
          "140607.700000",
          "140607.703000",
          "140607.706000",
          "140607.709000",
          "140607.711000",
          "140707.635000",
          "140707.638000",
          "140707.641000",
          "140707.644000",
          "140707.647000",
          "140707.650000",
          "140707.653000",
          "140707.655000",
          "140707.658000",
          "140707.661000",
          "140707.664000",
          "140707.667000",
          "140707.670000",
          "140707.672000",
          "140707.676000",
          "140707.678000",
          "140707.681000",
          "140707.684000",
          "140707.687000",
          "140707.690000",
          "140707.693000",
          "140707.695000",
          "140707.698000",
          "140707.701000",
          "140707.704000",
          "140807.631000",
          "140807.635000",
          "140807.637000",
          "140807.640000",
          "140807.643000",
          "140807.646000",
          "140807.649000",
          "140807.651000",
          "140807.654000",
          "140807.657000",
          "140807.660000",
          "140807.662000",
          "140807.665000",
          "140807.681000",
          "140807.684000",
          "140807.687000",
          "140807.689000",
          "140807.692000",
          "140807.695000",
          "140807.697000",
          "140807.700000",
          "140807.702000",
          "140807.705000",
          "140807.708000",
          "140807.711000",
          "140807.713000",
          "140907.634000",
          "140907.637000",
          "140907.640000",
          "140907.643000",
          "140907.645000",
          "140907.648000",
          "140907.654000",
          "140907.657000",
          "140907.660000",
          "140907.662000",
          "140907.665000",
          "140907.668000",
          "140907.671000",
          "140907.673000",
          "140907.676000",
          "140907.679000",
          "140907.681000",
          "140907.684000",
          "140907.687000",
          "140907.690000",
          "140907.692000",
          "140907.695000",
          "140907.698000",
          "140907.701000",
          "140907.704000",
          "140907.706000",
          "141007.633000",
          "141007.636000",
          "141007.639000",
          "141007.642000",
          "141007.645000",
          "141007.648000",
          "141007.651000",
          "141007.653000",
          "141007.656000",
          "141007.659000",
          "141007.662000",
          "141007.665000",
          "141007.668000",
          "141007.670000",
          "141007.673000",
          "141007.676000",
          "141007.679000",
          "141007.682000",
          "141007.685000",
          "141007.688000",
          "141007.690000",
          "141007.693000",
          "141007.696000",
          "141007.699000",
          "141007.702000",
          "141014.351000",
          "141014.354000",
          "141014.357000"
        ],
        "InstanceNumber": [
          1,
          2,
          3,
          4,
          5,
          6,
          7,
          8,
          9,
          10,
          11,
          12,
          13,
          14,
          15,
          16,
          17,
          18,
          19,
          20,
          21,
          22,
          23,
          24,
          25,
          26,
          27,
          28,
          29,
          30,
          31,
          32,
          33,
          34,
          35,
          36,
          37,
          38,
          39,
          40,
          41,
          42,
          43,
          44,
          45,
          46,
          47,
          48,
          49,
          50,
          51,
          52,
          53,
          54,
          55,
          56,
          57,
          58,
          59,
          60,
          61,
          62,
          63,
          64,
          65,
          66,
          67,
          68,
          69,
          70,
          71,
          72,
          73,
          74,
          75,
          76,
          77,
          78,
          79,
          80,
          81,
          82,
          83,
          84,
          85,
          86,
          87,
          88,
          89,
          90,
          91,
          92,
          93,
          94,
          95,
          96,
          97,
          98,
          99,
          100,
          101,
          102,
          103,
          104,
          105,
          106,
          107,
          108,
          109,
          110,
          111,
          112,
          113,
          114,
          115,
          116,
          117,
          118,
          119,
          120,
          121,
          122,
          123,
          124,
          125,
          126,
          127
        ],
        "LargestImagePixelValue": [
          1353,
          1360,
          1687,
          1584,
          1326,
          1346,
          1562,
          1421,
          1344,
          1471,
          1459,
          1399,
          1352,
          1351,
          1467,
          1313,
          1336,
          1391,
          1329,
          1328,
          1490,
          1532,
          1386,
          1491,
          1389,
          1443,
          1599,
          1313,
          1398,
          1489,
          1444,
          1354,
          1391,
          1413,
          1558,
          1373,
          1319,
          1382,
          1594,
          1319,
          1548,
          1334,
          1362,
          1309,
          1475,
          1491,
          1506,
          1326,
          1367,
          1558,
          1394,
          1379,
          1452,
          1354,
          1422,
          1651,
          1574,
          1326,
          1461,
          1497,
          1330,
          1523,
          1337,
          1370,
          1354,
          1368,
          1477,
          1684,
          1425,
          1401,
          1417,
          1426,
          1621,
          1368,
          1374,
          1358,
          1347,
          1364,
          1354,
          1380,
          1331,
          1551,
          1292,
          1355,
          1561,
          1315,
          1489,
          1611,
          1368,
          1486,
          1348,
          1575,
          1672,
          1542,
          1370,
          1474,
          1384,
          1865,
          1296,
          1383,
          1404,
          1442,
          1346,
          1399,
          1324,
          1386,
          1445,
          1333,
          1592,
          1332,
          1541,
          1600,
          1582,
          1531,
          1542,
          1561,
          1478,
          1674,
          1684,
          1359,
          1523,
          1334,
          1344,
          1389,
          1569,
          1294,
          1524
        ],
        "WindowCenter": [
          659.0,
          659.0,
          660.0,
          661.0,
          661.0,
          659.0,
          659.0,
          659.0,
          660.0,
          662.0,
          662.0,
          660.0,
          658.0,
          655.0,
          659.0,
          660.0,
          660.0,
          658.0,
          658.0,
          660.0,
          661.0,
          660.0,
          660.0,
          663.0,
          663.0,
          663.0,
          661.0,
          659.0,
          660.0,
          661.0,
          661.0,
          660.0,
          660.0,
          661.0,
          661.0,
          660.0,
          659.0,
          661.0,
          660.0,
          661.0,
          661.0,
          657.0,
          658.0,
          660.0,
          662.0,
          661.0,
          660.0,
          659.0,
          659.0,
          659.0,
          657.0,
          660.0,
          660.0,
          662.0,
          663.0,
          664.0,
          662.0,
          660.0,
          661.0,
          663.0,
          659.0,
          662.0,
          661.0,
          662.0,
          661.0,
          661.0,
          662.0,
          665.0,
          663.0,
          663.0,
          663.0,
          663.0,
          664.0,
          663.0,
          663.0,
          661.0,
          661.0,
          663.0,
          661.0,
          663.0,
          663.0,
          662.0,
          664.0,
          665.0,
          667.0,
          664.0,
          664.0,
          665.0,
          665.0,
          666.0,
          665.0,
          667.0,
          665.0,
          665.0,
          663.0,
          664.0,
          664.0,
          665.0,
          660.0,
          664.0,
          665.0,
          665.0,
          660.0,
          663.0,
          663.0,
          664.0,
          666.0,
          662.0,
          665.0,
          663.0,
          664.0,
          666.0,
          662.0,
          664.0,
          663.0,
          666.0,
          663.0,
          665.0,
          659.0,
          658.0,
          661.0,
          659.0,
          663.0,
          663.0,
          663.0,
          663.0,
          667.0
        ],
        "WindowWidth": [
          1364.0,
          1364.0,
          1366.0,
          1367.0,
          1368.0,
          1363.0,
          1363.0,
          1364.0,
          1365.0,
          1370.0,
          1370.0,
          1366.0,
          1362.0,
          1355.0,
          1365.0,
          1366.0,
          1364.0,
          1361.0,
          1362.0,
          1365.0,
          1367.0,
          1365.0,
          1364.0,
          1373.0,
          1372.0,
          1373.0,
          1367.0,
          1363.0,
          1366.0,
          1368.0,
          1367.0,
          1364.0,
          1366.0,
          1368.0,
          1367.0,
          1366.0,
          1364.0,
          1367.0,
          1365.0,
          1368.0,
          1367.0,
          1360.0,
          1362.0,
          1366.0,
          1368.0,
          1367.0,
          1365.0,
          1364.0,
          1363.0,
          1363.0,
          1360.0,
          1366.0,
          1364.0,
          1369.0,
          1371.0,
          1373.0,
          1370.0,
          1365.0,
          1366.0,
          1373.0,
          1364.0,
          1370.0,
          1368.0,
          1370.0,
          1368.0,
          1368.0,
          1370.0,
          1375.0,
          1372.0,
          1371.0,
          1372.0,
          1371.0,
          1374.0,
          1372.0,
          1372.0,
          1368.0,
          1368.0,
          1373.0,
          1368.0,
          1372.0,
          1373.0,
          1371.0,
          1375.0,
          1376.0,
          1381.0,
          1374.0,
          1375.0,
          1377.0,
          1376.0,
          1380.0,
          1375.0,
          1381.0,
          1376.0,
          1375.0,
          1371.0,
          1373.0,
          1374.0,
          1375.0,
          1366.0,
          1374.0,
          1376.0,
          1375.0,
          1366.0,
          1373.0,
          1371.0,
          1374.0,
          1378.0,
          1369.0,
          1376.0,
          1372.0,
          1374.0,
          1378.0,
          1370.0,
          1375.0,
          1373.0,
          1378.0,
          1371.0,
          1376.0,
          1363.0,
          1362.0,
          1368.0,
          1364.0,
          1372.0,
          1371.0,
          1372.0,
          1372.0,
          1380.0
        ]
      },
      "slices": {}
    }
  },
  "dummy_trs": 0,
  "dvars_nstd": 37.869011198492075,
  "dvars_std": 1.2805300911111113,
  "dvars_vstd": 1.0502480422222227,
  "efc": 0.5726173670365657,
  "fber": 1603.7762451171875,
  "fd_mean": 0.5394152422050982,
  "fd_num": 113,
  "fd_perc": 88.97637795275591,
  "fwhm_avg": 1.610333001130698,
  "fwhm_x": 1.5220066666666667,
  "fwhm_y": 1.7948166666666667,
  "fwhm_z": 1.5141756700587607,
  "gcor": 0.0528692,
  "gsr_x": -0.00896773673593998,
  "gsr_y": 0.046659618616104126,
  "provenance": {
    "md5sum": "381bfcb4cc228936b900222385adf055",
    "settings": {
      "fd_thres": 0.2,
      "testing": false
    },
    "software": "mriqc",
    "version": "22.0.1",
    "webapi_port": null,
    "webapi_url": "https://mriqc.nimh.nih.gov/api/v1"
  },
  "size_t": 127,
  "size_x": 64,
  "size_y": 64,
  "size_z": 34,
  "snr": 7.073560610312248,
  "spacing_tr": 2.3399999141693115,
  "spacing_x": 3.0,
  "spacing_y": 3.0,
  "spacing_z": 3.3000001907348633,
  "summary_bg_k": 67.46918981858286,
  "summary_bg_mad": 6.969396627909617,
  "summary_bg_mean": 27.003326416015625,
  "summary_bg_median": 16.708662033081055,
  "summary_bg_n": 72427.0,
  "summary_bg_p05": 9.181102752685547,
  "summary_bg_p95": 72.52362060546864,
  "summary_bg_stdv": 39.94076919555664,
  "summary_fg_k": 2.4222168130479877,
  "summary_fg_mad": 97.6883199317078,
  "summary_fg_mean": 687.0191650390625,
  "summary_fg_median": 683.31494140625,
  "summary_fg_n": 34460.0,
  "summary_fg_p05": 550.5031188964844,
  "summary_fg_p95": 834.8039489746094,
  "summary_fg_stdv": 96.59986877441406,
  "tsnr": 51.90723523683846
}