{
  "aor": 0.0028248780487804877,
  "aqi": 0.013672415609756098,
  "bids_meta": {
    "AcquisitionMatrixPE": 64,
    "AcquisitionNumber": 1,
    "AcquisitionTime": "13:21:47.742500",
    "BandwidthPerPixelPhaseEncode": 24.038,
    "BaseResolution": 64,
    "BodyPartExamined": "HEAD",
    "ConsistencyInfo": "N4_VD13A_LATEST_20120616",
    "ConversionSoftware": "dcm2niix",
    "ConversionSoftwareVersion": "v1.0.20181125  GCC6.3.0",
    "DerivedVendorReportedEchoSpacing": 0.000650012,
    "DeviceSerialNumber": "45250",
    "DwellTime": 4.6e-06,
    "EchoTime": 0.033,
    "EchoTrainLength": 64,
    "EffectiveEchoSpacing": 0.000650012,
    "FlipAngle": 90,
    "ImageOrientationPatientDICOM": [
      0.995932,
      -0.049617,
      -0.0752216,
      0.0417419,
      0.993818,
      -0.102872
    ],
    "ImageType": [
      "ORIGINAL",
      "PRIMARY",
      "M",
      "ND",
      "NORM",
      "MOSAIC"
    ],
    "ImagingFrequency": 123.214,
    "InPlanePhaseEncodingDirectionDICOM": "COL",
    "InstitutionAddress": "Kopernikusstr._26_Graz_Graz_AT_8010",
    "InstitutionName": "KFU",
    "InstitutionalDepartmentName": "Department",
    "MRAcquisitionType": "2D",
    "MagneticFieldStrength": 3,
    "Manufacturer": "Siemens",
    "ManufacturersModelName": "Skyra",
    "Modality": "MR",
    "PartialFourier": 1,
    "PatientPosition": "HFS",
    "PercentPhaseFOV": 100,
    "PhaseEncodingDirection": "j-",
    "PhaseEncodingSteps": 64,
    "PhaseResolution": 1,
    "PixelBandwidth": 1700,
    "ProcedureStepDescription": "KFU_Entw-Psy",
    "ProtocolName": "fMRI_3",
    "PulseSequenceDetails": "%SiemensSeq%_ep2d_pace",
    "ReceiveCoilActiveElements": "HE1-4",
    "ReceiveCoilName": "HeadNeck_20",
    "ReconMatrixPE": 64,
    "RepetitionTime": 2.34,
    "SAR": 0.177878,
    "ScanOptions": "FS",
    "ScanningSequence": "EP",
    "SequenceName": "_epfid2d1_64",
    "SequenceVariant": "SK",
    "SeriesDescription": "fMRI_3",
    "SeriesNumber": 10,
    "ShimSetting": [
      -1626,
      -3765,
      -4328,
      355,
      484,
      56,
      10,
      -393
    ],
    "SliceThickness": 3,
    "SliceTiming": [
      2.2525,
      2.1825,
      2.115,
      2.0475,
      1.98,
      1.91,
      1.8425,
      1.775,
      1.705,
      1.6375,
      1.57,
      1.5025,
      1.4325,
      1.365,
      1.2975,
      1.2275,
      1.16,
      1.0925,
      1.025,
      0.955,
      0.8875,
      0.82,
      0.75,
      0.6825,
      0.615,
      0.545,
      0.4775,
      0.41,
      0.3425,
      0.2725,
      0.205,
      0.1375,
      0.0675,
      0
    ],
    "SoftwareVersions": "syngo_MR_D13",
    "SpacingBetweenSlices": 3.3,
    "StationName": "FBMTMR1",
    "TaskName": "read",
    "TotalReadoutTime": 0.0409508,
    "TxRefAmp": 324.106,
    "dataset": "ds003126",
    "dcmmeta_affine": [
      [
        -2.987794876098633,
        0.12522566318511963,
        -0.2635405957698822,
        90.77809143066406
      ],
      [
        0.1488509327173233,
        2.981455087661743,
        -0.32773497700691223,
        -111.71552276611328
      ],
      [
        -0.22566474974155426,
        0.30861613154411316,
        3.273092746734619,
        -15.88368034362793
      ],
      [
        0.0,
        0.0,
        0.0,
        1.0
      ]
    ],
    "dcmmeta_reorient_transform": [
      [
        0.0,
        -1.0,
        0.0,
        63.0
      ],
      [
        1.0,
        0.0,
        0.0,
        0.0
      ],
      [
        0.0,
        0.0,
        1.0,
        0.0
      ],
      [
        0.0,
        0.0,
        0.0,
        1.0
      ]
    ],
    "dcmmeta_shape": [
      64,
      64,
      34,
      123
    ],
    "dcmmeta_slice_dim": 2,
    "dcmmeta_version": 0.6,
    "global": {
      "const": {
        "AcquisitionMatrix": [
          64,
          0,
          0,
          64
        ],
        "AngioFlag": "N",
        "BitsAllocated": 16,
        "BitsStored": 12,
        "BodyPartExamined": "HEAD",
        "Columns": 384,
        "EchoNumbers": 1,
        "EchoTime": 33.0,
        "EchoTrainLength": 64,
        "FlipAngle": 90.0,
        "HighBit": 11,
        "ImageOrientationPatient": [
          0.99593165886159,
          -0.0496169790441,
          -0.0752215811303,
          0.0417418876146,
          0.99381837220085,
          -0.1028720462245
        ],
        "ImagePositionPatient": [
          -596.75060710842,
          -529.33281511087,
          89.044077069057
        ],
        "ImageType": [
          "ORIGINAL",
          "PRIMARY",
          "M",
          "ND",
          "NORM",
          "MOSAIC"
        ],
        "ImagedNucleus": "1H",
        "ImagingFrequency": 123.21435,
        "InPlanePhaseEncodingDirection": "COL",
        "MRAcquisitionType": "2D",
        "MagneticFieldStrength": 3.0,
        "Manufacturer": "SIEMENS",
        "ManufacturerModelName": "Skyra",
        "Modality": "MR",
        "NumberOfAverages": 1.0,
        "NumberOfPhaseEncodingSteps": 64,
        "PercentPhaseFieldOfView": 100.0,
        "PercentSampling": 100.0,
        "PerformedProcedureStepStartTime": "124000.175000",
        "PhotometricInterpretation": "MONOCHROME2",
        "PixelBandwidth": 1700.0,
        "PixelRepresentation": 0,
        "PixelSpacing": [
          3.0,
          3.0
        ],
        "ProtocolName": "fMRI_3",
        "RepetitionTime": 2340.0,
        "Rows": 384,
        "SAR": 0.1778779272083,
        "SamplesPerPixel": 1,
        "ScanOptions": "FS",
        "ScanningSequence": "EP",
        "SequenceName": "*epfid2d1_64",
        "SequenceVariant": "SK",
        "SeriesDescription": "fMRI_3",
        "SeriesNumber": 10,
        "SeriesTime": "132238.798000",
        "SliceLocation": -11.908904415447,
        "SliceThickness": 3.0,
        "SmallestImagePixelValue": 0,
        "SoftwareVersions": "syngo MR D13",
        "SpacingBetweenSlices": 3.2999998982131,
        "SpecificCharacterSet": "ISO_IR 100",
        "StudyID": "1",
        "StudyTime": "124000.111000",
        "TransmitCoilName": "Body",
        "VariableFlipAngleFlag": "N",
        "WindowCenterWidthExplanation": "Algo1",
        "dBdt": 0.0
      },
      "slices": {}
    },
    "modality": "bold",
    "run_id": 3,
    "session_id": "2",
    "subject_id": "047EPKL012017",
    "task_id": "read",
    "time": {
      "samples": {
        "AcquisitionNumber": [
          1,
          2,
          3,
          4,
          5,
          6,
          7,
          8,
          9,
          10,
          11,
          12,
          13,
          14,
          15,
          16,
          17,
          18,
          19,
          20,
          21,
          22,
          23,
          24,
          25,
          26,
          27,
          28,
          29,
          30,
          31,
          32,
          33,
          34,
          35,
          36,
          37,
          38,
          39,
          40,
          41,
          42,
          43,
          44,
          45,
          46,
          47,
          48,
          49,
          50,
          51,
          52,
          53,
          54,
          55,
          56,
          57,
          58,
          59,
          60,
          61,
          62,
          63,
          64,
          65,
          66,
          67,
          68,
          69,
          70,
          71,
          72,
          73,
          74,
          75,
          76,
          77,
          78,
          79,
          80,
          81,
          82,
          83,
          84,
          85,
          86,
          87,
          88,
          89,
          90,
          91,
          92,
          93,
          94,
          95,
          96,
          97,
          98,
          99,
          100,
          101,
          102,
          103,
          104,
          105,
          106,
          107,
          108,
          109,
          110,
          111,
          112,
          113,
          114,
          115,
          116,
          117,
          118,
          119,
          120,
          121,
          122,
          123
        ],
        "AcquisitionTime": [
          "132147.742500",
          "132150.082500",
          "132152.422500",
          "132154.762500",
          "132157.102500",
          "132159.442500",
          "132201.782500",
          "132204.122500",
          "132206.462500",
          "132208.802500",
          "132211.142500",
          "132213.482500",
          "132215.822500",
          "132218.162500",
          "132220.502500",
          "132222.842500",
          "132225.182500",
          "132227.522500",
          "132229.862500",
          "132232.202500",
          "132234.542500",
          "132236.882500",
          "132239.222500",
          "132241.562500",
          "132243.902500",
          "132246.242500",
          "132248.582500",
          "132250.922500",
          "132253.262500",
          "132255.602500",
          "132257.942500",
          "132300.282500",
          "132302.622500",
          "132304.962500",
          "132307.302500",
          "132309.642500",
          "132311.982500",
          "132314.322500",
          "132316.662500",
          "132319.002500",
          "132321.342500",
          "132323.682500",
          "132326.022500",
          "132328.362500",
          "132330.702500",
          "132333.042500",
          "132335.382500",
          "132337.722500",
          "132340.062500",
          "132342.402500",
          "132344.742500",
          "132347.082500",
          "132349.422500",
          "132351.762500",
          "132354.102500",
          "132356.442500",
          "132358.782500",
          "132401.122500",
          "132403.462500",
          "132405.802500",
          "132408.142500",
          "132410.482500",
          "132412.822500",
          "132415.162500",
          "132417.502500",
          "132419.842500",
          "132422.182500",
          "132424.522500",
          "132426.862500",
          "132429.202500",
          "132431.542500",
          "132433.882500",
          "132436.222500",
          "132438.562500",
          "132440.902500",
          "132443.242500",
          "132445.582500",
          "132447.922500",
          "132450.262500",
          "132452.602500",
          "132454.942500",
          "132457.282500",
          "132459.622500",
          "132501.962500",
          "132504.302500",
          "132506.642500",
          "132508.982500",
          "132511.322500",
          "132513.662500",
          "132516.002500",
          "132518.342500",
          "132520.682500",
          "132523.022500",
          "132525.362500",
          "132527.702500",
          "132530.042500",
          "132532.382500",
          "132534.722500",
          "132537.062500",
          "132539.402500",
          "132541.742500",
          "132544.082500",
          "132546.422500",
          "132548.762500",
          "132551.102500",
          "132553.442500",
          "132555.782500",
          "132558.122500",
          "132600.462500",
          "132602.802500",
          "132605.142500",
          "132607.482500",
          "132609.822500",
          "132612.162500",
          "132614.502500",
          "132616.842500",
          "132619.182500",
          "132621.522500",
          "132623.862500",
          "132626.202500",
          "132628.542500",
          "132630.882500",
          "132633.222500"
        ],
        "ContentTime": [
          "132238.802000",
          "132238.807000",
          "132238.809000",
          "132238.812000",
          "132238.822000",
          "132238.825000",
          "132238.827000",
          "132238.830000",
          "132238.833000",
          "132238.836000",
          "132238.838000",
          "132238.841000",
          "132238.844000",
          "132238.847000",
          "132238.849000",
          "132238.852000",
          "132238.855000",
          "132238.857000",
          "132238.860000",
          "132238.863000",
          "132238.865000",
          "132238.868000",
          "132338.797000",
          "132338.801000",
          "132338.803000",
          "132338.806000",
          "132338.809000",
          "132338.811000",
          "132338.814000",
          "132338.817000",
          "132338.820000",
          "132338.822000",
          "132338.825000",
          "132338.828000",
          "132338.831000",
          "132338.834000",
          "132338.837000",
          "132338.840000",
          "132338.842000",
          "132338.845000",
          "132338.848000",
          "132338.850000",
          "132338.853000",
          "132338.856000",
          "132338.859000",
          "132338.862000",
          "132338.865000",
          "132338.868000",
          "132438.797000",
          "132438.813000",
          "132438.821000",
          "132438.823000",
          "132438.826000",
          "132438.829000",
          "132438.831000",
          "132438.834000",
          "132438.837000",
          "132438.840000",
          "132438.843000",
          "132438.845000",
          "132438.848000",
          "132438.850000",
          "132438.853000",
          "132438.856000",
          "132438.859000",
          "132438.866000",
          "132438.869000",
          "132438.872000",
          "132438.874000",
          "132438.877000",
          "132438.880000",
          "132438.883000",
          "132438.886000",
          "132538.797000",
          "132538.801000",
          "132538.803000",
          "132538.806000",
          "132538.819000",
          "132538.822000",
          "132538.825000",
          "132538.827000",
          "132538.830000",
          "132538.833000",
          "132538.836000",
          "132538.838000",
          "132538.841000",
          "132538.844000",
          "132538.846000",
          "132538.849000",
          "132538.852000",
          "132538.855000",
          "132538.858000",
          "132538.861000",
          "132538.864000",
          "132538.866000",
          "132538.869000",
          "132538.872000",
          "132538.875000",
          "132538.877000",
          "132636.114000",
          "132636.132000",
          "132636.135000",
          "132636.138000",
          "132636.142000",
          "132636.145000",
          "132636.148000",
          "132636.150000",
          "132636.154000",
          "132636.159000",
          "132636.163000",
          "132636.168000",
          "132636.172000",
          "132636.176000",
          "132636.179000",
          "132636.182000",
          "132636.188000",
          "132636.191000",
          "132636.195000",
          "132636.199000",
          "132636.203000",
          "132636.207000",
          "132636.209000",
          "132636.212000"
        ],
        "InstanceCreationTime": [
          "132238.802000",
          "132238.807000",
          "132238.809000",
          "132238.812000",
          "132238.822000",
          "132238.825000",
          "132238.827000",
          "132238.830000",
          "132238.833000",
          "132238.836000",
          "132238.838000",
          "132238.841000",
          "132238.844000",
          "132238.847000",
          "132238.849000",
          "132238.852000",
          "132238.855000",
          "132238.857000",
          "132238.860000",
          "132238.863000",
          "132238.865000",
          "132238.868000",
          "132338.797000",
          "132338.801000",
          "132338.803000",
          "132338.806000",
          "132338.809000",
          "132338.811000",
          "132338.814000",
          "132338.817000",
          "132338.820000",
          "132338.822000",
          "132338.825000",
          "132338.828000",
          "132338.831000",
          "132338.834000",
          "132338.837000",
          "132338.840000",
          "132338.842000",
          "132338.845000",
          "132338.848000",
          "132338.850000",
          "132338.853000",
          "132338.856000",
          "132338.859000",
          "132338.862000",
          "132338.865000",
          "132338.868000",
          "132438.797000",
          "132438.813000",
          "132438.821000",
          "132438.823000",
          "132438.826000",
          "132438.829000",
          "132438.831000",
          "132438.834000",
          "132438.837000",
          "132438.840000",
          "132438.843000",
          "132438.845000",
          "132438.848000",
          "132438.850000",
          "132438.853000",
          "132438.856000",
          "132438.859000",
          "132438.866000",
          "132438.869000",
          "132438.872000",
          "132438.874000",
          "132438.877000",
          "132438.880000",
          "132438.883000",
          "132438.886000",
          "132538.797000",
          "132538.801000",
          "132538.803000",
          "132538.806000",
          "132538.819000",
          "132538.822000",
          "132538.825000",
          "132538.827000",
          "132538.830000",
          "132538.833000",
          "132538.836000",
          "132538.838000",
          "132538.841000",
          "132538.844000",
          "132538.846000",
          "132538.849000",
          "132538.852000",
          "132538.855000",
          "132538.858000",
          "132538.861000",
          "132538.864000",
          "132538.866000",
          "132538.869000",
          "132538.872000",
          "132538.875000",
          "132538.877000",
          "132636.114000",
          "132636.132000",
          "132636.135000",
          "132636.138000",
          "132636.142000",
          "132636.145000",
          "132636.148000",
          "132636.150000",
          "132636.154000",
          "132636.159000",
          "132636.163000",
          "132636.168000",
          "132636.172000",
          "132636.176000",
          "132636.179000",
          "132636.182000",
          "132636.188000",
          "132636.191000",
          "132636.195000",
          "132636.199000",
          "132636.203000",
          "132636.207000",
          "132636.209000",
          "132636.212000"
        ],
        "InstanceNumber": [
          1,
          2,
          3,
          4,
          5,
          6,
          7,
          8,
          9,
          10,
          11,
          12,
          13,
          14,
          15,
          16,
          17,
          18,
          19,
          20,
          21,
          22,
          23,
          24,
          25,
          26,
          27,
          28,
          29,
          30,
          31,
          32,
          33,
          34,
          35,
          36,
          37,
          38,
          39,
          40,
          41,
          42,
          43,
          44,
          45,
          46,
          47,
          48,
          49,
          50,
          51,
          52,
          53,
          54,
          55,
          56,
          57,
          58,
          59,
          60,
          61,
          62,
          63,
          64,
          65,
          66,
          67,
          68,
          69,
          70,
          71,
          72,
          73,
          74,
          75,
          76,
          77,
          78,
          79,
          80,
          81,
          82,
          83,
          84,
          85,
          86,
          87,
          88,
          89,
          90,
          91,
          92,
          93,
          94,
          95,
          96,
          97,
          98,
          99,
          100,
          101,
          102,
          103,
          104,
          105,
          106,
          107,
          108,
          109,
          110,
          111,
          112,
          113,
          114,
          115,
          116,
          117,
          118,
          119,
          120,
          121,
          122,
          123
        ],
        "LargestImagePixelValue": [
          2296,
          1654,
          1635,
          2364,
          1635,
          1978,
          2228,
          2428,
          1965,
          1547,
          2324,
          2369,
          1643,
          2045,
          1624,
          1739,
          1534,
          1927,
          2054,
          2185,
          1591,
          1984,
          2420,
          1560,
          2267,
          1583,
          2220,
          2144,
          1535,
          1556,
          1589,
          1657,
          1608,
          1975,
          1601,
          1586,
          1567,
          1880,
          2267,
          2042,
          2125,
          1611,
          1613,
          1455,
          1624,
          1638,
          1480,
          1538,
          2310,
          1698,
          2029,
          1929,
          2134,
          1448,
          1610,
          1582,
          1984,
          2339,
          1811,
          1623,
          2179,
          1538,
          1560,
          1568,
          1980,
          1598,
          2049,
          2147,
          1622,
          1915,
          1553,
          1581,
          2370,
          1625,
          1558,
          1898,
          1558,
          1570,
          1883,
          2255,
          2128,
          1594,
          1694,
          1418,
          1584,
          1603,
          1811,
          1615,
          1423,
          2222,
          2271,
          2571,
          2369,
          1584,
          1969,
          1553,
          1560,
          1543,
          1702,
          1800,
          1820,
          2146,
          1887,
          1983,
          2327,
          1526,
          1576,
          1985,
          2446,
          1685,
          1961,
          1852,
          1626,
          1613,
          1535,
          1534,
          2339,
          2508,
          2255,
          1565,
          1549,
          1579,
          1536
        ],
        "WindowCenter": [
          687.0,
          684.0,
          685.0,
          685.0,
          684.0,
          685.0,
          685.0,
          684.0,
          682.0,
          682.0,
          682.0,
          679.0,
          679.0,
          678.0,
          677.0,
          676.0,
          679.0,
          681.0,
          682.0,
          678.0,
          680.0,
          683.0,
          684.0,
          680.0,
          680.0,
          679.0,
          678.0,
          676.0,
          673.0,
          677.0,
          678.0,
          680.0,
          678.0,
          682.0,
          681.0,
          682.0,
          684.0,
          688.0,
          685.0,
          681.0,
          680.0,
          679.0,
          678.0,
          680.0,
          684.0,
          684.0,
          682.0,
          685.0,
          686.0,
          681.0,
          681.0,
          682.0,
          681.0,
          681.0,
          681.0,
          684.0,
          686.0,
          683.0,
          682.0,
          682.0,
          681.0,
          679.0,
          680.0,
          685.0,
          685.0,
          683.0,
          687.0,
          685.0,
          686.0,
          685.0,
          682.0,
          685.0,
          685.0,
          684.0,
          682.0,
          684.0,
          683.0,
          685.0,
          686.0,
          685.0,
          687.0,
          684.0,
          684.0,
          683.0,
          685.0,
          686.0,
          687.0,
          687.0,
          689.0,
          694.0,
          690.0,
          686.0,
          683.0,
          680.0,
          681.0,
          682.0,
          684.0,
          686.0,
          686.0,
          687.0,
          686.0,
          687.0,
          685.0,
          686.0,
          683.0,
          685.0,
          687.0,
          688.0,
          688.0,
          688.0,
          688.0,
          687.0,
          686.0,
          688.0,
          687.0,
          689.0,
          691.0,
          687.0,
          686.0,
          682.0,
          684.0,
          685.0,
          685.0
        ],
        "WindowWidth": [
          1442.0,
          1436.0,
          1436.0,
          1437.0,
          1434.0,
          1437.0,
          1438.0,
          1433.0,
          1429.0,
          1429.0,
          1431.0,
          1424.0,
          1423.0,
          1421.0,
          1418.0,
          1416.0,
          1424.0,
          1427.0,
          1431.0,
          1420.0,
          1427.0,
          1434.0,
          1434.0,
          1425.0,
          1426.0,
          1423.0,
          1421.0,
          1416.0,
          1410.0,
          1419.0,
          1421.0,
          1426.0,
          1421.0,
          1429.0,
          1428.0,
          1430.0,
          1435.0,
          1443.0,
          1436.0,
          1428.0,
          1427.0,
          1425.0,
          1422.0,
          1426.0,
          1434.0,
          1434.0,
          1431.0,
          1437.0,
          1440.0,
          1429.0,
          1429.0,
          1430.0,
          1429.0,
          1428.0,
          1428.0,
          1435.0,
          1439.0,
          1432.0,
          1430.0,
          1429.0,
          1428.0,
          1423.0,
          1425.0,
          1436.0,
          1438.0,
          1433.0,
          1440.0,
          1437.0,
          1439.0,
          1436.0,
          1431.0,
          1438.0,
          1438.0,
          1435.0,
          1431.0,
          1433.0,
          1433.0,
          1438.0,
          1440.0,
          1438.0,
          1440.0,
          1434.0,
          1434.0,
          1432.0,
          1438.0,
          1439.0,
          1442.0,
          1442.0,
          1446.0,
          1457.0,
          1450.0,
          1439.0,
          1433.0,
          1427.0,
          1429.0,
          1431.0,
          1434.0,
          1440.0,
          1438.0,
          1442.0,
          1438.0,
          1441.0,
          1438.0,
          1439.0,
          1433.0,
          1438.0,
          1442.0,
          1444.0,
          1444.0,
          1445.0,
          1445.0,
          1443.0,
          1440.0,
          1444.0,
          1443.0,
          1447.0,
          1452.0,
          1443.0,
          1440.0,
          1430.0,
          1435.0,
          1436.0,
          1438.0
        ]
      },
      "slices": {}
    }
  },
  "dummy_trs": 0,
  "dvars_nstd": 37.725733616557356,
  "dvars_std": 1.3073876090163936,
  "dvars_vstd": 1.0351659096721313,
  "efc": 0.5443589317162321,
  "fber": 1549.4219970703125,
  "fd_mean": 0.4962978195767552,
  "fd_num": 111,
  "fd_perc": 90.2439024390244,
  "fwhm_avg": 1.6183947901576756,
  "fwhm_x": 1.5405266666666666,
  "fwhm_y": 1.8377,
  "fwhm_z": 1.4769577038063602,
  "gcor": 0.101426,
  "gsr_x": -0.003535493975505233,
  "gsr_y": 0.02947373501956463,
  "provenance": {
    "md5sum": "b612f9c7ef19f9cb87cba09cb95b28f8",
    "settings": {
      "fd_thres": 0.2,
      "testing": false
    },
    "software": "mriqc",
    "version": "22.0.1",
    "webapi_port": null,
    "webapi_url": "https://mriqc.nimh.nih.gov/api/v1"
  },
  "size_t": 123,
  "size_x": 64,
  "size_y": 64,
  "size_z": 34,
  "snr": 7.018472572415527,
  "spacing_tr": 2.3399999141693115,
  "spacing_x": 3.0,
  "spacing_y": 3.0,
  "spacing_z": 3.299999713897705,
  "summary_bg_k": 47.83874083333851,
  "summary_bg_mad": 7.244261195356584,
  "summary_bg_mean": 30.729251861572266,
  "summary_bg_median": 18.739837646484375,
  "summary_bg_n": 77896.0,
  "summary_bg_p05": 11.252032279968262,
  "summary_bg_p95": 74.3191032409668,
  "summary_bg_stdv": 45.77595138549805,
  "summary_fg_k": 3.351980267315974,
  "summary_fg_mad": 103.28798471950962,
  "summary_fg_mean": 755.650390625,
  "summary_fg_median": 755.8983154296875,
  "summary_fg_n": 29644.0,
  "summary_fg_p05": 599.0349151611329,
  "summary_fg_p95": 914.9406188964844,
  "summary_fg_stdv": 107.6994400024414,
  "tsnr": 53.44688766915351
}