{
  "aor": 0.008973870967741937,
  "aqi": 0.01925740798387097,
  "bids_meta": {
    "AcquisitionMatrixPE": 64,
    "AcquisitionNumber": 1,
    "AcquisitionTime": "10:10:29.775000",
    "BandwidthPerPixelPhaseEncode": 24.038,
    "BaseResolution": 64,
    "BodyPartExamined": "HEAD",
    "ConsistencyInfo": "N4_VD13A_LATEST_20120616",
    "ConversionSoftware": "dcm2niix",
    "ConversionSoftwareVersion": "v1.0.20181125  GCC6.3.0",
    "DerivedVendorReportedEchoSpacing": 0.000650012,
    "DeviceSerialNumber": "45250",
    "DwellTime": 4.6e-06,
    "EchoTime": 0.033,
    "EchoTrainLength": 64,
    "EffectiveEchoSpacing": 0.000650012,
    "FlipAngle": 90,
    "ImageOrientationPatientDICOM": [
      0.998342,
      -0.0146836,
      -0.0556618,
      0.00696987,
      0.99064,
      -0.136321
    ],
    "ImageType": [
      "ORIGINAL",
      "PRIMARY",
      "M",
      "ND",
      "NORM",
      "MOSAIC"
    ],
    "ImagingFrequency": 123.214,
    "InPlanePhaseEncodingDirectionDICOM": "COL",
    "InstitutionAddress": "Kopernikusstr._26_Graz_Graz_AT_8010",
    "InstitutionName": "KFU",
    "InstitutionalDepartmentName": "Department",
    "MRAcquisitionType": "2D",
    "MagneticFieldStrength": 3,
    "Manufacturer": "Siemens",
    "ManufacturersModelName": "Skyra",
    "Modality": "MR",
    "PartialFourier": 1,
    "PatientPosition": "HFS",
    "PercentPhaseFOV": 100,
    "PhaseEncodingDirection": "j-",
    "PhaseEncodingSteps": 64,
    "PhaseResolution": 1,
    "PixelBandwidth": 1700,
    "ProcedureStepDescription": "KFU_Entw-Psy",
    "ProtocolName": "fMRI_3",
    "PulseSequenceDetails": "%SiemensSeq%_ep2d_pace",
    "ReceiveCoilActiveElements": "HE1-4",
    "ReceiveCoilName": "HeadNeck_20",
    "ReconMatrixPE": 64,
    "RepetitionTime": 2.34,
    "SAR": 0.19523,
    "ScanOptions": "FS",
    "ScanningSequence": "EP",
    "SequenceName": "_epfid2d1_64",
    "SequenceVariant": "SK",
    "SeriesDescription": "fMRI_3",
    "SeriesNumber": 8,
    "ShimSetting": [
      -1609,
      -3633,
      -4390,
      507,
      445,
      309,
      -254,
      -440
    ],
    "SliceThickness": 3,
    "SliceTiming": [
      2.2525,
      2.185,
      2.115,
      2.0475,
      1.98,
      1.9125,
      1.8425,
      1.775,
      1.7075,
      1.6375,
      1.57,
      1.5025,
      1.435,
      1.365,
      1.2975,
      1.23,
      1.16,
      1.0925,
      1.025,
      0.9575,
      0.8875,
      0.82,
      0.7525,
      0.6825,
      0.615,
      0.5475,
      0.4775,
      0.41,
      0.3425,
      0.275,
      0.205,
      0.1375,
      0.07,
      0
    ],
    "SoftwareVersions": "syngo_MR_D13",
    "SpacingBetweenSlices": 3.3,
    "StationName": "FBMTMR1",
    "TaskName": "read",
    "TotalReadoutTime": 0.0409508,
    "TxRefAmp": 324.623,
    "dataset": "ds003126",
    "dcmmeta_affine": [
      [
        -2.995025157928467,
        0.020909609273076057,
        -0.18857020139694214,
        89.3839111328125
      ],
      [
        0.04405081272125244,
        2.9719207286834717,
        -0.4478321969509125,
        -113.58580780029297
      ],
      [
        -0.16698536276817322,
        0.4089622497558594,
        3.2640292644500732,
        -28.27486228942871
      ],
      [
        0.0,
        0.0,
        0.0,
        1.0
      ]
    ],
    "dcmmeta_reorient_transform": [
      [
        0.0,
        -1.0,
        0.0,
        63.0
      ],
      [
        1.0,
        0.0,
        0.0,
        0.0
      ],
      [
        0.0,
        0.0,
        1.0,
        0.0
      ],
      [
        0.0,
        0.0,
        0.0,
        1.0
      ]
    ],
    "dcmmeta_shape": [
      64,
      64,
      34,
      124
    ],
    "dcmmeta_slice_dim": 2,
    "dcmmeta_version": 0.6,
    "global": {
      "const": {
        "AcquisitionMatrix": [
          64,
          0,
          0,
          64
        ],
        "AngioFlag": "N",
        "BitsAllocated": 16,
        "BitsStored": 12,
        "BodyPartExamined": "HEAD",
        "Columns": 384,
        "EchoNumbers": 1,
        "EchoTime": 33.0,
        "EchoTrainLength": 64,
        "FlipAngle": 90.0,
        "HighBit": 11,
        "ImageOrientationPatient": [
          0.99834170357641,
          -0.014683603656,
          -0.0556617883635,
          0.00696986995876,
          0.99064023444987,
          -0.1363207497113
        ],
        "ImagePositionPatient": [
          -573.25077008627,
          -542.10437894117,
          89.641376821841
        ],
        "ImageType": [
          "ORIGINAL",
          "PRIMARY",
          "M",
          "ND",
          "NORM",
          "MOSAIC"
        ],
        "ImagedNucleus": "1H",
        "ImagingFrequency": 123.214426,
        "InPlanePhaseEncodingDirection": "COL",
        "MRAcquisitionType": "2D",
        "MagneticFieldStrength": 3.0,
        "Manufacturer": "SIEMENS",
        "ManufacturerModelName": "Skyra",
        "Modality": "MR",
        "NumberOfAverages": 1.0,
        "NumberOfPhaseEncodingSteps": 64,
        "PercentPhaseFieldOfView": 100.0,
        "PercentSampling": 100.0,
        "PerformedProcedureStepStartTime": "093125.123000",
        "PhotometricInterpretation": "MONOCHROME2",
        "PixelBandwidth": 1700.0,
        "PixelRepresentation": 0,
        "PixelSpacing": [
          3.0,
          3.0
        ],
        "ProtocolName": "fMRI_3",
        "RepetitionTime": 2340.0,
        "Rows": 384,
        "SAR": 0.19523014571314,
        "SamplesPerPixel": 1,
        "ScanOptions": "FS",
        "ScanningSequence": "EP",
        "SequenceName": "*epfid2d1_64",
        "SequenceVariant": "SK",
        "SeriesDescription": "fMRI_3",
        "SeriesNumber": 8,
        "SeriesTime": "101131.787000",
        "SliceLocation": -17.659921357424,
        "SliceThickness": 3.0,
        "SmallestImagePixelValue": 0,
        "SoftwareVersions": "syngo MR D13",
        "SpacingBetweenSlices": 3.2999998972786,
        "SpecificCharacterSet": "ISO_IR 100",
        "StudyID": "1",
        "StudyTime": "093125.068000",
        "TransmitCoilName": "Body",
        "VariableFlipAngleFlag": "N",
        "WindowCenterWidthExplanation": "Algo1",
        "dBdt": 0.0
      },
      "slices": {}
    },
    "modality": "bold",
    "run_id": 3,
    "session_id": "2",
    "subject_id": "047EPKL012014",
    "task_id": "read",
    "time": {
      "samples": {
        "AcquisitionNumber": [
          1,
          2,
          3,
          4,
          5,
          6,
          7,
          8,
          9,
          10,
          11,
          12,
          13,
          14,
          15,
          16,
          17,
          18,
          19,
          20,
          21,
          22,
          23,
          24,
          25,
          26,
          27,
          28,
          29,
          30,
          31,
          32,
          33,
          34,
          35,
          36,
          37,
          38,
          39,
          40,
          41,
          42,
          43,
          44,
          45,
          46,
          47,
          48,
          49,
          50,
          51,
          52,
          53,
          54,
          55,
          56,
          57,
          58,
          59,
          60,
          61,
          62,
          63,
          64,
          65,
          66,
          67,
          68,
          69,
          70,
          71,
          72,
          73,
          74,
          75,
          76,
          77,
          78,
          79,
          80,
          81,
          82,
          83,
          84,
          85,
          86,
          87,
          88,
          89,
          90,
          91,
          92,
          93,
          94,
          95,
          96,
          97,
          98,
          99,
          100,
          101,
          102,
          103,
          104,
          105,
          106,
          107,
          108,
          109,
          110,
          111,
          112,
          113,
          114,
          115,
          116,
          117,
          118,
          119,
          120,
          121,
          122,
          123,
          124
        ],
        "AcquisitionTime": [
          "101029.775000",
          "101032.115000",
          "101034.455000",
          "101036.795000",
          "101039.135000",
          "101041.475000",
          "101043.815000",
          "101046.155000",
          "101048.495000",
          "101050.835000",
          "101053.175000",
          "101055.515000",
          "101057.855000",
          "101100.195000",
          "101102.535000",
          "101104.875000",
          "101107.215000",
          "101109.555000",
          "101111.895000",
          "101114.235000",
          "101116.575000",
          "101118.915000",
          "101121.255000",
          "101123.595000",
          "101125.935000",
          "101128.275000",
          "101130.615000",
          "101132.955000",
          "101135.295000",
          "101137.635000",
          "101139.975000",
          "101142.315000",
          "101144.655000",
          "101146.995000",
          "101149.335000",
          "101151.675000",
          "101154.015000",
          "101156.355000",
          "101158.695000",
          "101201.035000",
          "101203.375000",
          "101205.715000",
          "101208.055000",
          "101210.395000",
          "101212.735000",
          "101215.075000",
          "101217.415000",
          "101219.755000",
          "101222.095000",
          "101224.435000",
          "101226.775000",
          "101229.115000",
          "101231.455000",
          "101233.795000",
          "101236.135000",
          "101238.475000",
          "101240.815000",
          "101243.155000",
          "101245.495000",
          "101247.835000",
          "101250.175000",
          "101252.515000",
          "101254.855000",
          "101257.195000",
          "101259.535000",
          "101301.875000",
          "101304.215000",
          "101306.555000",
          "101308.895000",
          "101311.235000",
          "101313.575000",
          "101315.915000",
          "101318.255000",
          "101320.595000",
          "101322.935000",
          "101325.275000",
          "101327.615000",
          "101329.955000",
          "101332.295000",
          "101334.635000",
          "101336.975000",
          "101339.315000",
          "101341.655000",
          "101343.995000",
          "101346.335000",
          "101348.675000",
          "101351.015000",
          "101353.355000",
          "101355.695000",
          "101358.035000",
          "101400.375000",
          "101402.715000",
          "101405.055000",
          "101407.395000",
          "101409.735000",
          "101412.075000",
          "101414.415000",
          "101416.755000",
          "101419.095000",
          "101421.435000",
          "101423.775000",
          "101426.115000",
          "101428.455000",
          "101430.795000",
          "101433.135000",
          "101435.475000",
          "101437.815000",
          "101440.155000",
          "101442.495000",
          "101444.835000",
          "101447.175000",
          "101449.515000",
          "101451.855000",
          "101454.195000",
          "101456.535000",
          "101458.875000",
          "101501.215000",
          "101503.555000",
          "101505.895000",
          "101508.235000",
          "101510.575000",
          "101512.915000",
          "101515.255000",
          "101517.595000"
        ],
        "ContentTime": [
          "101131.792000",
          "101131.796000",
          "101131.798000",
          "101131.801000",
          "101131.803000",
          "101131.807000",
          "101131.810000",
          "101131.812000",
          "101131.815000",
          "101131.818000",
          "101131.821000",
          "101131.824000",
          "101131.826000",
          "101131.830000",
          "101131.832000",
          "101131.835000",
          "101131.837000",
          "101131.840000",
          "101131.843000",
          "101131.846000",
          "101131.848000",
          "101131.851000",
          "101131.854000",
          "101131.857000",
          "101131.859000",
          "101131.862000",
          "101131.865000",
          "101231.786000",
          "101231.797000",
          "101231.799000",
          "101231.802000",
          "101231.805000",
          "101231.808000",
          "101231.810000",
          "101231.813000",
          "101231.816000",
          "101231.818000",
          "101231.821000",
          "101231.823000",
          "101231.826000",
          "101231.829000",
          "101231.831000",
          "101231.834000",
          "101231.837000",
          "101231.839000",
          "101231.842000",
          "101231.845000",
          "101231.847000",
          "101231.850000",
          "101231.853000",
          "101231.863000",
          "101231.866000",
          "101331.785000",
          "101331.789000",
          "101331.792000",
          "101331.801000",
          "101331.804000",
          "101331.807000",
          "101331.810000",
          "101331.813000",
          "101331.816000",
          "101331.819000",
          "101331.821000",
          "101331.824000",
          "101331.827000",
          "101331.830000",
          "101331.833000",
          "101331.836000",
          "101331.839000",
          "101331.842000",
          "101331.844000",
          "101331.847000",
          "101331.850000",
          "101331.853000",
          "101331.855000",
          "101331.858000",
          "101331.861000",
          "101331.864000",
          "101431.785000",
          "101431.789000",
          "101431.791000",
          "101431.794000",
          "101431.797000",
          "101431.800000",
          "101431.802000",
          "101431.805000",
          "101431.808000",
          "101431.810000",
          "101431.816000",
          "101431.819000",
          "101431.822000",
          "101431.825000",
          "101431.827000",
          "101431.830000",
          "101431.833000",
          "101431.836000",
          "101431.838000",
          "101431.841000",
          "101431.844000",
          "101431.847000",
          "101431.849000",
          "101431.852000",
          "101431.855000",
          "101431.857000",
          "101519.298000",
          "101519.301000",
          "101519.304000",
          "101519.315000",
          "101519.319000",
          "101519.322000",
          "101519.325000",
          "101519.329000",
          "101519.332000",
          "101519.335000",
          "101519.337000",
          "101519.340000",
          "101519.343000",
          "101519.346000",
          "101519.349000",
          "101519.352000",
          "101519.355000",
          "101519.358000",
          "101519.363000",
          "101519.366000"
        ],
        "InstanceCreationTime": [
          "101131.792000",
          "101131.796000",
          "101131.798000",
          "101131.801000",
          "101131.803000",
          "101131.807000",
          "101131.810000",
          "101131.812000",
          "101131.815000",
          "101131.818000",
          "101131.821000",
          "101131.824000",
          "101131.826000",
          "101131.830000",
          "101131.832000",
          "101131.835000",
          "101131.837000",
          "101131.840000",
          "101131.843000",
          "101131.846000",
          "101131.848000",
          "101131.851000",
          "101131.854000",
          "101131.857000",
          "101131.859000",
          "101131.862000",
          "101131.865000",
          "101231.786000",
          "101231.797000",
          "101231.799000",
          "101231.802000",
          "101231.805000",
          "101231.808000",
          "101231.810000",
          "101231.813000",
          "101231.816000",
          "101231.818000",
          "101231.821000",
          "101231.823000",
          "101231.826000",
          "101231.829000",
          "101231.831000",
          "101231.834000",
          "101231.837000",
          "101231.839000",
          "101231.842000",
          "101231.845000",
          "101231.847000",
          "101231.850000",
          "101231.853000",
          "101231.863000",
          "101231.866000",
          "101331.785000",
          "101331.789000",
          "101331.792000",
          "101331.801000",
          "101331.804000",
          "101331.807000",
          "101331.810000",
          "101331.813000",
          "101331.816000",
          "101331.819000",
          "101331.821000",
          "101331.824000",
          "101331.827000",
          "101331.830000",
          "101331.833000",
          "101331.836000",
          "101331.839000",
          "101331.842000",
          "101331.844000",
          "101331.847000",
          "101331.850000",
          "101331.853000",
          "101331.855000",
          "101331.858000",
          "101331.861000",
          "101331.864000",
          "101431.785000",
          "101431.789000",
          "101431.791000",
          "101431.794000",
          "101431.797000",
          "101431.800000",
          "101431.802000",
          "101431.805000",
          "101431.808000",
          "101431.810000",
          "101431.816000",
          "101431.819000",
          "101431.822000",
          "101431.825000",
          "101431.827000",
          "101431.830000",
          "101431.833000",
          "101431.836000",
          "101431.838000",
          "101431.841000",
          "101431.844000",
          "101431.847000",
          "101431.849000",
          "101431.852000",
          "101431.855000",
          "101431.857000",
          "101519.298000",
          "101519.301000",
          "101519.304000",
          "101519.315000",
          "101519.319000",
          "101519.322000",
          "101519.325000",
          "101519.329000",
          "101519.332000",
          "101519.335000",
          "101519.337000",
          "101519.340000",
          "101519.343000",
          "101519.346000",
          "101519.349000",
          "101519.352000",
          "101519.355000",
          "101519.358000",
          "101519.363000",
          "101519.366000"
        ],
        "InstanceNumber": [
          1,
          2,
          3,
          4,
          5,
          6,
          7,
          8,
          9,
          10,
          11,
          12,
          13,
          14,
          15,
          16,
          17,
          18,
          19,
          20,
          21,
          22,
          23,
          24,
          25,
          26,
          27,
          28,
          29,
          30,
          31,
          32,
          33,
          34,
          35,
          36,
          37,
          38,
          39,
          40,
          41,
          42,
          43,
          44,
          45,
          46,
          47,
          48,
          49,
          50,
          51,
          52,
          53,
          54,
          55,
          56,
          57,
          58,
          59,
          60,
          61,
          62,
          63,
          64,
          65,
          66,
          67,
          68,
          69,
          70,
          71,
          72,
          73,
          74,
          75,
          76,
          77,
          78,
          79,
          80,
          81,
          82,
          83,
          84,
          85,
          86,
          87,
          88,
          89,
          90,
          91,
          92,
          93,
          94,
          95,
          96,
          97,
          98,
          99,
          100,
          101,
          102,
          103,
          104,
          105,
          106,
          107,
          108,
          109,
          110,
          111,
          112,
          113,
          114,
          115,
          116,
          117,
          118,
          119,
          120,
          121,
          122,
          123,
          124
        ],
        "LargestImagePixelValue": [
          2994,
          2753,
          2960,
          2500,
          3487,
          2251,
          2533,
          2478,
          2369,
          3241,
          3225,
          2786,
          2829,
          3236,
          2313,
          1989,
          2069,
          3162,
          3186,
          2432,
          1909,
          2523,
          2552,
          3236,
          1901,
          1965,
          3167,
          2814,
          1940,
          1862,
          2491,
          2956,
          3268,
          1938,
          2948,
          3304,
          2256,
          2137,
          1953,
          2177,
          3218,
          3355,
          3021,
          1985,
          1975,
          2983,
          2238,
          3126,
          3255,
          3082,
          1932,
          1893,
          1928,
          2797,
          2859,
          2449,
          3174,
          2626,
          3288,
          1915,
          3169,
          1844,
          2050,
          2974,
          3256,
          2882,
          1839,
          1969,
          2880,
          3280,
          3285,
          1904,
          1919,
          2969,
          1877,
          2551,
          2697,
          3095,
          2987,
          2551,
          2977,
          3111,
          2077,
          1876,
          2582,
          2419,
          3098,
          2044,
          2706,
          2978,
          2371,
          1954,
          2321,
          3362,
          3344,
          3358,
          2112,
          1977,
          1822,
          2170,
          2008,
          3360,
          1983,
          1879,
          2477,
          2702,
          2743,
          2686,
          2659,
          2098,
          2127,
          2983,
          2636,
          3187,
          2456,
          1982,
          2892,
          3236,
          2417,
          1990,
          3365,
          2567,
          3267,
          2406
        ],
        "WindowCenter": [
          804.0,
          803.0,
          803.0,
          802.0,
          803.0,
          800.0,
          801.0,
          803.0,
          803.0,
          804.0,
          802.0,
          801.0,
          800.0,
          801.0,
          798.0,
          802.0,
          800.0,
          806.0,
          800.0,
          797.0,
          795.0,
          800.0,
          800.0,
          802.0,
          798.0,
          803.0,
          804.0,
          801.0,
          800.0,
          800.0,
          802.0,
          808.0,
          803.0,
          803.0,
          803.0,
          803.0,
          801.0,
          803.0,
          804.0,
          806.0,
          806.0,
          804.0,
          801.0,
          800.0,
          805.0,
          808.0,
          804.0,
          803.0,
          801.0,
          798.0,
          797.0,
          802.0,
          805.0,
          807.0,
          806.0,
          808.0,
          807.0,
          806.0,
          804.0,
          803.0,
          804.0,
          803.0,
          805.0,
          807.0,
          805.0,
          803.0,
          801.0,
          808.0,
          807.0,
          809.0,
          804.0,
          801.0,
          802.0,
          804.0,
          804.0,
          805.0,
          805.0,
          805.0,
          803.0,
          802.0,
          803.0,
          801.0,
          800.0,
          802.0,
          804.0,
          807.0,
          806.0,
          806.0,
          806.0,
          806.0,
          806.0,
          811.0,
          809.0,
          809.0,
          803.0,
          802.0,
          797.0,
          800.0,
          800.0,
          804.0,
          806.0,
          807.0,
          805.0,
          805.0,
          806.0,
          808.0,
          806.0,
          807.0,
          805.0,
          806.0,
          807.0,
          810.0,
          809.0,
          809.0,
          806.0,
          808.0,
          810.0,
          808.0,
          806.0,
          808.0,
          810.0,
          808.0,
          807.0,
          807.0
        ],
        "WindowWidth": [
          1709.0,
          1707.0,
          1705.0,
          1703.0,
          1708.0,
          1697.0,
          1702.0,
          1705.0,
          1706.0,
          1709.0,
          1702.0,
          1702.0,
          1700.0,
          1701.0,
          1693.0,
          1703.0,
          1699.0,
          1713.0,
          1698.0,
          1688.0,
          1684.0,
          1700.0,
          1697.0,
          1703.0,
          1693.0,
          1705.0,
          1708.0,
          1700.0,
          1695.0,
          1699.0,
          1705.0,
          1717.0,
          1703.0,
          1704.0,
          1704.0,
          1706.0,
          1699.0,
          1705.0,
          1707.0,
          1714.0,
          1714.0,
          1709.0,
          1700.0,
          1699.0,
          1709.0,
          1719.0,
          1709.0,
          1706.0,
          1702.0,
          1694.0,
          1692.0,
          1704.0,
          1710.0,
          1716.0,
          1713.0,
          1718.0,
          1716.0,
          1712.0,
          1709.0,
          1706.0,
          1709.0,
          1705.0,
          1710.0,
          1715.0,
          1712.0,
          1706.0,
          1701.0,
          1717.0,
          1719.0,
          1719.0,
          1708.0,
          1701.0,
          1702.0,
          1708.0,
          1706.0,
          1710.0,
          1710.0,
          1711.0,
          1705.0,
          1704.0,
          1705.0,
          1701.0,
          1696.0,
          1703.0,
          1708.0,
          1714.0,
          1714.0,
          1714.0,
          1714.0,
          1713.0,
          1715.0,
          1724.0,
          1723.0,
          1721.0,
          1705.0,
          1703.0,
          1689.0,
          1698.0,
          1699.0,
          1707.0,
          1713.0,
          1716.0,
          1711.0,
          1709.0,
          1712.0,
          1719.0,
          1715.0,
          1716.0,
          1712.0,
          1714.0,
          1715.0,
          1723.0,
          1720.0,
          1721.0,
          1714.0,
          1716.0,
          1724.0,
          1719.0,
          1711.0,
          1719.0,
          1725.0,
          1716.0,
          1714.0,
          1717.0
        ]
      },
      "slices": {}
    }
  },
  "dummy_trs": 0,
  "dvars_nstd": 42.93144083398376,
  "dvars_std": 1.3168283656910569,
  "dvars_vstd": 1.0710784278861787,
  "efc": 0.57134253379342,
  "fber": 1643.8033447265625,
  "fd_mean": 0.6651303851426348,
  "fd_num": 114,
  "fd_perc": 91.93548387096774,
  "fwhm_avg": 1.6399573167171464,
  "fwhm_x": 1.5132366666666668,
  "fwhm_y": 1.8844533333333333,
  "fwhm_z": 1.522181950151439,
  "gcor": 0.0619753,
  "gsr_x": -0.014086962677538395,
  "gsr_y": 0.050392504781484604,
  "provenance": {
    "md5sum": "f15715e5feff269fd92f9e4c52b45292",
    "settings": {
      "fd_thres": 0.2,
      "testing": false
    },
    "software": "mriqc",
    "version": "22.0.1",
    "webapi_port": null,
    "webapi_url": "https://mriqc.nimh.nih.gov/api/v1"
  },
  "size_t": 124,
  "size_x": 64,
  "size_y": 64,
  "size_z": 34,
  "snr": 6.401984216770283,
  "spacing_tr": 2.3399999141693115,
  "spacing_x": 3.0,
  "spacing_y": 3.0,
  "spacing_z": 3.299999713897705,
  "summary_bg_k": 56.307208653365684,
  "summary_bg_mad": 7.927137730452747,
  "summary_bg_mean": 35.01261901855469,
  "summary_bg_median": 22.36290168762207,
  "summary_bg_n": 72214.0,
  "summary_bg_p05": 12.884273910522461,
  "summary_bg_p95": 87.3657222747802,
  "summary_bg_stdv": 53.95425033569336,
  "summary_fg_k": 3.2492466125254564,
  "summary_fg_mad": 131.9456250503664,
  "summary_fg_mean": 927.0360717773438,
  "summary_fg_median": 924.5645141601562,
  "summary_fg_n": 34726.0,
  "summary_fg_p05": 725.320556640625,
  "summary_fg_p95": 1138.0443115234375,
  "summary_fg_stdv": 144.41635131835938,
  "tsnr": 45.238935614936054
}