{
  "aor": 0.0045374803149606305,
  "aqi": 0.015944852598425197,
  "bids_meta": {
    "AcquisitionMatrixPE": 64,
    "AcquisitionNumber": 1,
    "AcquisitionTime": "09:47:20.330000",
    "BandwidthPerPixelPhaseEncode": 24.038,
    "BaseResolution": 64,
    "BodyPartExamined": "HEAD",
    "ConsistencyInfo": "N4_VD13A_LATEST_20120616",
    "ConversionSoftware": "dcm2niix",
    "ConversionSoftwareVersion": "v1.0.20181125  GCC6.3.0",
    "DerivedVendorReportedEchoSpacing": 0.000650012,
    "DeviceSerialNumber": "45250",
    "DwellTime": 4.6e-06,
    "EchoTime": 0.033,
    "EchoTrainLength": 64,
    "EffectiveEchoSpacing": 0.000650012,
    "FlipAngle": 90,
    "ImageOrientationPatientDICOM": [
      0.999871,
      -0.0125751,
      -0.0100359,
      0.0104711,
      0.982209,
      -0.187498
    ],
    "ImageType": [
      "ORIGINAL",
      "PRIMARY",
      "M",
      "ND",
      "NORM",
      "MOSAIC"
    ],
    "ImagingFrequency": 123.214,
    "InPlanePhaseEncodingDirectionDICOM": "COL",
    "InstitutionAddress": "Kopernikusstr._26_Graz_Graz_AT_8010",
    "InstitutionName": "KFU",
    "InstitutionalDepartmentName": "Department",
    "MRAcquisitionType": "2D",
    "MagneticFieldStrength": 3,
    "Manufacturer": "Siemens",
    "ManufacturersModelName": "Skyra",
    "Modality": "MR",
    "PartialFourier": 1,
    "PatientPosition": "HFS",
    "PercentPhaseFOV": 100,
    "PhaseEncodingDirection": "j-",
    "PhaseEncodingSteps": 64,
    "PhaseResolution": 1,
    "PixelBandwidth": 1700,
    "ProcedureStepDescription": "KFU_Entw-Psy",
    "ProtocolName": "fMRI_3",
    "PulseSequenceDetails": "%SiemensSeq%_ep2d_pace",
    "ReceiveCoilActiveElements": "HE1-4",
    "ReceiveCoilName": "HeadNeck_20",
    "ReconMatrixPE": 64,
    "RepetitionTime": 2.34,
    "SAR": 0.196971,
    "ScanOptions": "FS",
    "ScanningSequence": "EP",
    "SequenceName": "_epfid2d1_64",
    "SequenceVariant": "SK",
    "SeriesDescription": "fMRI_3",
    "SeriesNumber": 8,
    "ShimSetting": [
      -1621,
      -3726,
      -4386,
      365,
      334,
      -296,
      362,
      -222
    ],
    "SliceThickness": 3,
    "SliceTiming": [
      2.25,
      2.1825,
      2.115,
      2.045,
      1.9775,
      1.91,
      1.8425,
      1.7725,
      1.705,
      1.6375,
      1.5675,
      1.5,
      1.4325,
      1.365,
      1.295,
      1.2275,
      1.16,
      1.09,
      1.0225,
      0.955,
      0.885,
      0.8175,
      0.75,
      0.6825,
      0.6125,
      0.545,
      0.4775,
      0.4075,
      0.34,
      0.2725,
      0.205,
      0.135,
      0.0675,
      0
    ],
    "SoftwareVersions": "syngo_MR_D13",
    "SpacingBetweenSlices": 3.3,
    "StationName": "FBMTMR1",
    "TaskName": "read",
    "TotalReadoutTime": 0.0409508,
    "TxRefAmp": 327.693,
    "dataset": "ds003126",
    "dcmmeta_affine": [
      [
        -2.9996116161346436,
        0.03141317516565323,
        -0.04030996561050415,
        95.19632720947266
      ],
      [
        0.03772539645433426,
        2.946627616882324,
        -0.6183164119720459,
        -104.91259765625
      ],
      [
        -0.03010762855410576,
        0.5624938607215881,
        3.241305112838745,
        -22.643383026123047
      ],
      [
        0.0,
        0.0,
        0.0,
        1.0
      ]
    ],
    "dcmmeta_reorient_transform": [
      [
        0.0,
        -1.0,
        0.0,
        63.0
      ],
      [
        1.0,
        0.0,
        0.0,
        0.0
      ],
      [
        0.0,
        0.0,
        1.0,
        0.0
      ],
      [
        0.0,
        0.0,
        0.0,
        1.0
      ]
    ],
    "dcmmeta_shape": [
      64,
      64,
      34,
      127
    ],
    "dcmmeta_slice_dim": 2,
    "dcmmeta_version": 0.6,
    "global": {
      "const": {
        "AcquisitionMatrix": [
          64,
          0,
          0,
          64
        ],
        "AngioFlag": "N",
        "BitsAllocated": 16,
        "BitsStored": 12,
        "BodyPartExamined": "HEAD",
        "Columns": 384,
        "EchoNumbers": 1,
        "EchoTime": 33.0,
        "EchoTrainLength": 64,
        "FlipAngle": 90.0,
        "HighBit": 11,
        "ImageOrientationPatient": [
          0.9998705652524,
          -0.0125751315429,
          -0.0100358760717,
          0.01047105862045,
          0.98220917869032,
          -0.1874979632632
        ],
        "ImagePositionPatient": [
          -582.13933412571,
          -546.14928016482,
          107.60997537031
        ],
        "ImageType": [
          "ORIGINAL",
          "PRIMARY",
          "M",
          "ND",
          "NORM",
          "MOSAIC"
        ],
        "ImagedNucleus": "1H",
        "ImagingFrequency": 123.214458,
        "InPlanePhaseEncodingDirection": "COL",
        "MRAcquisitionType": "2D",
        "MagneticFieldStrength": 3.0,
        "Manufacturer": "SIEMENS",
        "ManufacturerModelName": "Skyra",
        "Modality": "MR",
        "NumberOfAverages": 1.0,
        "NumberOfPhaseEncodingSteps": 64,
        "PercentPhaseFieldOfView": 100.0,
        "PercentSampling": 100.0,
        "PerformedProcedureStepStartTime": "093239.192000",
        "PhotometricInterpretation": "MONOCHROME2",
        "PixelBandwidth": 1700.0,
        "PixelRepresentation": 0,
        "PixelSpacing": [
          3.0,
          3.0
        ],
        "ProtocolName": "fMRI_3",
        "RepetitionTime": 2340.0,
        "Rows": 384,
        "SAR": 0.19697104855573,
        "SamplesPerPixel": 1,
        "ScanOptions": "FS",
        "ScanningSequence": "EP",
        "SequenceName": "*epfid2d1_64",
        "SequenceVariant": "SK",
        "SeriesDescription": "fMRI_3",
        "SeriesNumber": 8,
        "SeriesTime": "094811.192000",
        "SliceLocation": -3.7461502690285,
        "SliceThickness": 3.0,
        "SmallestImagePixelValue": 0,
        "SoftwareVersions": "syngo MR D13",
        "SpacingBetweenSlices": 3.2999999485177,
        "SpecificCharacterSet": "ISO_IR 100",
        "StudyID": "1",
        "StudyTime": "093239.146000",
        "TransmitCoilName": "Body",
        "VariableFlipAngleFlag": "N",
        "WindowCenterWidthExplanation": "Algo1",
        "dBdt": 0.0
      },
      "slices": {}
    },
    "modality": "bold",
    "run_id": 3,
    "session_id": "2",
    "subject_id": "047EPKL014029",
    "task_id": "read",
    "time": {
      "samples": {
        "AcquisitionNumber": [
          1,
          2,
          3,
          4,
          5,
          6,
          7,
          8,
          9,
          10,
          11,
          12,
          13,
          14,
          15,
          16,
          17,
          18,
          19,
          20,
          21,
          22,
          23,
          24,
          25,
          26,
          27,
          28,
          29,
          30,
          31,
          32,
          33,
          34,
          35,
          36,
          37,
          38,
          39,
          40,
          41,
          42,
          43,
          44,
          45,
          46,
          47,
          48,
          49,
          50,
          51,
          52,
          53,
          54,
          55,
          56,
          57,
          58,
          59,
          60,
          61,
          62,
          63,
          64,
          65,
          66,
          67,
          68,
          69,
          70,
          71,
          72,
          73,
          74,
          75,
          76,
          77,
          78,
          79,
          80,
          81,
          82,
          83,
          84,
          85,
          86,
          87,
          88,
          89,
          90,
          91,
          92,
          93,
          94,
          95,
          96,
          97,
          98,
          99,
          100,
          101,
          102,
          103,
          104,
          105,
          106,
          107,
          108,
          109,
          110,
          111,
          112,
          113,
          114,
          115,
          116,
          117,
          118,
          119,
          120,
          121,
          122,
          123,
          124,
          125,
          126,
          127
        ],
        "AcquisitionTime": [
          "094720.330000",
          "094722.670000",
          "094725.010000",
          "094727.350000",
          "094729.690000",
          "094732.030000",
          "094734.370000",
          "094736.710000",
          "094739.050000",
          "094741.390000",
          "094743.730000",
          "094746.070000",
          "094748.410000",
          "094750.750000",
          "094753.090000",
          "094755.430000",
          "094757.770000",
          "094800.110000",
          "094802.450000",
          "094804.790000",
          "094807.130000",
          "094809.470000",
          "094811.810000",
          "094814.150000",
          "094816.490000",
          "094818.830000",
          "094821.170000",
          "094823.510000",
          "094825.850000",
          "094828.190000",
          "094830.530000",
          "094832.870000",
          "094835.210000",
          "094837.550000",
          "094839.890000",
          "094842.230000",
          "094844.570000",
          "094846.910000",
          "094849.250000",
          "094851.590000",
          "094853.930000",
          "094856.270000",
          "094858.610000",
          "094900.950000",
          "094903.290000",
          "094905.630000",
          "094907.970000",
          "094910.310000",
          "094912.650000",
          "094914.990000",
          "094917.330000",
          "094919.670000",
          "094922.010000",
          "094924.350000",
          "094926.690000",
          "094929.030000",
          "094931.370000",
          "094933.710000",
          "094936.050000",
          "094938.390000",
          "094940.730000",
          "094943.070000",
          "094945.410000",
          "094947.750000",
          "094950.090000",
          "094952.430000",
          "094954.770000",
          "094957.110000",
          "094959.450000",
          "095001.790000",
          "095004.130000",
          "095006.470000",
          "095008.810000",
          "095011.150000",
          "095013.490000",
          "095015.830000",
          "095018.170000",
          "095020.510000",
          "095022.850000",
          "095025.190000",
          "095027.530000",
          "095029.870000",
          "095032.210000",
          "095034.550000",
          "095036.890000",
          "095039.230000",
          "095041.570000",
          "095043.910000",
          "095046.250000",
          "095048.590000",
          "095050.930000",
          "095053.270000",
          "095055.610000",
          "095057.950000",
          "095100.290000",
          "095102.630000",
          "095104.970000",
          "095107.310000",
          "095109.650000",
          "095111.990000",
          "095114.330000",
          "095116.670000",
          "095119.010000",
          "095121.350000",
          "095123.690000",
          "095126.030000",
          "095128.370000",
          "095130.710000",
          "095133.050000",
          "095135.390000",
          "095137.730000",
          "095140.070000",
          "095142.410000",
          "095144.750000",
          "095147.090000",
          "095149.430000",
          "095151.770000",
          "095154.110000",
          "095156.450000",
          "095158.790000",
          "095201.130000",
          "095203.470000",
          "095205.810000",
          "095208.150000",
          "095210.490000",
          "095212.830000",
          "095215.170000"
        ],
        "ContentTime": [
          "094811.197000",
          "094811.201000",
          "094811.204000",
          "094811.207000",
          "094811.216000",
          "094811.221000",
          "094811.223000",
          "094811.226000",
          "094811.229000",
          "094811.232000",
          "094811.234000",
          "094811.237000",
          "094811.240000",
          "094811.243000",
          "094811.248000",
          "094811.251000",
          "094811.254000",
          "094811.256000",
          "094811.259000",
          "094811.262000",
          "094811.265000",
          "094811.267000",
          "094911.190000",
          "094911.204000",
          "094911.208000",
          "094911.210000",
          "094911.214000",
          "094911.216000",
          "094911.219000",
          "094911.222000",
          "094911.225000",
          "094911.228000",
          "094911.231000",
          "094911.234000",
          "094911.237000",
          "094911.239000",
          "094911.243000",
          "094911.245000",
          "094911.248000",
          "094911.251000",
          "094911.254000",
          "094911.257000",
          "094911.260000",
          "094911.263000",
          "094911.266000",
          "094911.268000",
          "094911.271000",
          "094951.190000",
          "094951.193000",
          "094951.195000",
          "094951.198000",
          "094951.201000",
          "094951.204000",
          "094951.207000",
          "094951.209000",
          "094951.212000",
          "094951.215000",
          "094951.217000",
          "094951.220000",
          "094951.223000",
          "094951.225000",
          "094951.228000",
          "094951.231000",
          "094951.234000",
          "094951.236000",
          "095051.190000",
          "095051.193000",
          "095051.196000",
          "095051.206000",
          "095051.209000",
          "095051.211000",
          "095051.214000",
          "095051.217000",
          "095051.220000",
          "095051.222000",
          "095051.225000",
          "095051.228000",
          "095051.231000",
          "095051.234000",
          "095051.237000",
          "095051.240000",
          "095051.243000",
          "095051.246000",
          "095051.248000",
          "095051.251000",
          "095051.254000",
          "095051.257000",
          "095051.260000",
          "095051.263000",
          "095051.266000",
          "095151.190000",
          "095151.193000",
          "095151.196000",
          "095151.199000",
          "095151.207000",
          "095151.209000",
          "095151.212000",
          "095151.215000",
          "095151.218000",
          "095151.221000",
          "095151.223000",
          "095151.226000",
          "095151.229000",
          "095151.232000",
          "095151.235000",
          "095151.238000",
          "095151.241000",
          "095151.244000",
          "095151.247000",
          "095151.250000",
          "095151.253000",
          "095151.256000",
          "095151.258000",
          "095151.261000",
          "095151.264000",
          "095151.267000",
          "095216.646000",
          "095216.649000",
          "095216.653000",
          "095216.660000",
          "095216.664000",
          "095216.667000",
          "095216.670000",
          "095216.673000",
          "095216.677000",
          "095216.679000",
          "095216.682000"
        ],
        "InstanceCreationTime": [
          "094811.197000",
          "094811.201000",
          "094811.204000",
          "094811.207000",
          "094811.216000",
          "094811.221000",
          "094811.223000",
          "094811.226000",
          "094811.229000",
          "094811.232000",
          "094811.234000",
          "094811.237000",
          "094811.240000",
          "094811.243000",
          "094811.248000",
          "094811.251000",
          "094811.254000",
          "094811.256000",
          "094811.259000",
          "094811.262000",
          "094811.265000",
          "094811.267000",
          "094911.190000",
          "094911.204000",
          "094911.208000",
          "094911.210000",
          "094911.214000",
          "094911.216000",
          "094911.219000",
          "094911.222000",
          "094911.225000",
          "094911.228000",
          "094911.231000",
          "094911.234000",
          "094911.237000",
          "094911.239000",
          "094911.243000",
          "094911.245000",
          "094911.248000",
          "094911.251000",
          "094911.254000",
          "094911.257000",
          "094911.260000",
          "094911.263000",
          "094911.266000",
          "094911.268000",
          "094911.271000",
          "094951.190000",
          "094951.193000",
          "094951.195000",
          "094951.198000",
          "094951.201000",
          "094951.204000",
          "094951.207000",
          "094951.209000",
          "094951.212000",
          "094951.215000",
          "094951.217000",
          "094951.220000",
          "094951.223000",
          "094951.225000",
          "094951.228000",
          "094951.231000",
          "094951.234000",
          "094951.236000",
          "095051.190000",
          "095051.193000",
          "095051.196000",
          "095051.206000",
          "095051.209000",
          "095051.211000",
          "095051.214000",
          "095051.217000",
          "095051.220000",
          "095051.222000",
          "095051.225000",
          "095051.228000",
          "095051.231000",
          "095051.234000",
          "095051.237000",
          "095051.240000",
          "095051.243000",
          "095051.246000",
          "095051.248000",
          "095051.251000",
          "095051.254000",
          "095051.257000",
          "095051.260000",
          "095051.263000",
          "095051.266000",
          "095151.190000",
          "095151.193000",
          "095151.196000",
          "095151.199000",
          "095151.207000",
          "095151.209000",
          "095151.212000",
          "095151.215000",
          "095151.218000",
          "095151.221000",
          "095151.223000",
          "095151.226000",
          "095151.229000",
          "095151.232000",
          "095151.235000",
          "095151.238000",
          "095151.241000",
          "095151.244000",
          "095151.247000",
          "095151.250000",
          "095151.253000",
          "095151.256000",
          "095151.258000",
          "095151.261000",
          "095151.264000",
          "095151.267000",
          "095216.646000",
          "095216.649000",
          "095216.653000",
          "095216.660000",
          "095216.664000",
          "095216.667000",
          "095216.670000",
          "095216.673000",
          "095216.677000",
          "095216.679000",
          "095216.682000"
        ],
        "InstanceNumber": [
          1,
          2,
          3,
          4,
          5,
          6,
          7,
          8,
          9,
          10,
          11,
          12,
          13,
          14,
          15,
          16,
          17,
          18,
          19,
          20,
          21,
          22,
          23,
          24,
          25,
          26,
          27,
          28,
          29,
          30,
          31,
          32,
          33,
          34,
          35,
          36,
          37,
          38,
          39,
          40,
          41,
          42,
          43,
          44,
          45,
          46,
          47,
          48,
          49,
          50,
          51,
          52,
          53,
          54,
          55,
          56,
          57,
          58,
          59,
          60,
          61,
          62,
          63,
          64,
          65,
          66,
          67,
          68,
          69,
          70,
          71,
          72,
          73,
          74,
          75,
          76,
          77,
          78,
          79,
          80,
          81,
          82,
          83,
          84,
          85,
          86,
          87,
          88,
          89,
          90,
          91,
          92,
          93,
          94,
          95,
          96,
          97,
          98,
          99,
          100,
          101,
          102,
          103,
          104,
          105,
          106,
          107,
          108,
          109,
          110,
          111,
          112,
          113,
          114,
          115,
          116,
          117,
          118,
          119,
          120,
          121,
          122,
          123,
          124,
          125,
          126,
          127
        ],
        "LargestImagePixelValue": [
          2216,
          2369,
          2732,
          2848,
          2555,
          1819,
          1939,
          1904,
          2117,
          2303,
          2621,
          2245,
          1847,
          3007,
          2870,
          2546,
          1933,
          2125,
          2924,
          1882,
          2281,
          2118,
          2653,
          1897,
          2078,
          2325,
          2471,
          2665,
          2211,
          2498,
          2551,
          2406,
          1916,
          2307,
          2070,
          2129,
          2314,
          2695,
          2136,
          2294,
          2795,
          2332,
          2394,
          2179,
          1897,
          2808,
          2695,
          2344,
          2357,
          2439,
          1960,
          1966,
          2871,
          2808,
          2270,
          2748,
          1900,
          2294,
          2458,
          2503,
          2420,
          2571,
          2455,
          2620,
          1911,
          2657,
          2733,
          2646,
          2808,
          2119,
          2136,
          2113,
          2339,
          2414,
          2445,
          2386,
          2573,
          1954,
          2369,
          2478,
          3069,
          2691,
          2642,
          2492,
          1896,
          2138,
          2498,
          2598,
          2622,
          2861,
          1996,
          2547,
          1970,
          1951,
          2317,
          2507,
          2026,
          2272,
          2462,
          2786,
          2096,
          2353,
          2590,
          2862,
          2597,
          2957,
          2854,
          2394,
          1931,
          2338,
          2679,
          2355,
          2747,
          1977,
          2825,
          2544,
          2965,
          2789,
          2813,
          2416,
          2202,
          2653,
          2189,
          2598,
          2029,
          1841,
          2063
        ],
        "WindowCenter": [
          829.0,
          830.0,
          827.0,
          822.0,
          818.0,
          818.0,
          821.0,
          826.0,
          827.0,
          829.0,
          828.0,
          826.0,
          826.0,
          830.0,
          826.0,
          824.0,
          824.0,
          828.0,
          829.0,
          824.0,
          829.0,
          831.0,
          828.0,
          828.0,
          829.0,
          829.0,
          829.0,
          829.0,
          828.0,
          829.0,
          828.0,
          829.0,
          828.0,
          833.0,
          831.0,
          830.0,
          830.0,
          832.0,
          829.0,
          830.0,
          832.0,
          831.0,
          830.0,
          831.0,
          831.0,
          832.0,
          831.0,
          828.0,
          829.0,
          829.0,
          829.0,
          833.0,
          833.0,
          831.0,
          827.0,
          830.0,
          828.0,
          833.0,
          833.0,
          831.0,
          831.0,
          832.0,
          832.0,
          831.0,
          829.0,
          832.0,
          832.0,
          831.0,
          829.0,
          827.0,
          829.0,
          831.0,
          831.0,
          831.0,
          830.0,
          831.0,
          832.0,
          830.0,
          832.0,
          833.0,
          833.0,
          831.0,
          830.0,
          832.0,
          828.0,
          834.0,
          834.0,
          832.0,
          831.0,
          832.0,
          831.0,
          831.0,
          829.0,
          829.0,
          831.0,
          832.0,
          830.0,
          833.0,
          834.0,
          831.0,
          832.0,
          836.0,
          834.0,
          834.0,
          831.0,
          831.0,
          829.0,
          830.0,
          831.0,
          834.0,
          833.0,
          833.0,
          834.0,
          834.0,
          835.0,
          831.0,
          831.0,
          831.0,
          827.0,
          829.0,
          829.0,
          833.0,
          831.0,
          831.0,
          829.0,
          833.0,
          836.0
        ],
        "WindowWidth": [
          1729.0,
          1734.0,
          1728.0,
          1717.0,
          1705.0,
          1705.0,
          1713.0,
          1724.0,
          1726.0,
          1731.0,
          1730.0,
          1725.0,
          1724.0,
          1735.0,
          1727.0,
          1718.0,
          1720.0,
          1728.0,
          1733.0,
          1719.0,
          1729.0,
          1739.0,
          1729.0,
          1728.0,
          1731.0,
          1732.0,
          1732.0,
          1733.0,
          1730.0,
          1733.0,
          1734.0,
          1731.0,
          1730.0,
          1741.0,
          1737.0,
          1734.0,
          1736.0,
          1739.0,
          1730.0,
          1735.0,
          1741.0,
          1735.0,
          1734.0,
          1736.0,
          1735.0,
          1741.0,
          1737.0,
          1728.0,
          1732.0,
          1733.0,
          1731.0,
          1742.0,
          1744.0,
          1736.0,
          1727.0,
          1733.0,
          1728.0,
          1743.0,
          1739.0,
          1736.0,
          1736.0,
          1740.0,
          1739.0,
          1738.0,
          1731.0,
          1739.0,
          1740.0,
          1735.0,
          1733.0,
          1728.0,
          1732.0,
          1737.0,
          1737.0,
          1737.0,
          1734.0,
          1737.0,
          1740.0,
          1733.0,
          1739.0,
          1742.0,
          1744.0,
          1737.0,
          1736.0,
          1739.0,
          1729.0,
          1744.0,
          1747.0,
          1739.0,
          1736.0,
          1740.0,
          1735.0,
          1739.0,
          1732.0,
          1733.0,
          1738.0,
          1740.0,
          1734.0,
          1742.0,
          1744.0,
          1735.0,
          1738.0,
          1750.0,
          1745.0,
          1745.0,
          1736.0,
          1739.0,
          1735.0,
          1734.0,
          1736.0,
          1743.0,
          1743.0,
          1740.0,
          1744.0,
          1742.0,
          1746.0,
          1735.0,
          1737.0,
          1736.0,
          1729.0,
          1733.0,
          1732.0,
          1742.0,
          1737.0,
          1738.0,
          1733.0,
          1741.0,
          1747.0
        ]
      },
      "slices": {}
    }
  },
  "dummy_trs": 0,
  "dvars_nstd": 43.055428263015884,
  "dvars_std": 1.4401188784920633,
  "dvars_vstd": 1.047098310555556,
  "efc": 0.6082737568811936,
  "fber": 1430.2059326171875,
  "fd_mean": 0.5354442638743729,
  "fd_num": 117,
  "fd_perc": 92.1259842519685,
  "fwhm_avg": 1.6968071793818147,
  "fwhm_x": 1.60402,
  "fwhm_y": 1.8950833333333332,
  "fwhm_z": 1.5913182048121108,
  "gcor": 0.0668147,
  "gsr_x": -0.006246764212846756,
  "gsr_y": 0.049201227724552155,
  "provenance": {
    "md5sum": "8766c533520d6e0cec0cab0f64615336",
    "settings": {
      "fd_thres": 0.2,
      "testing": false
    },
    "software": "mriqc",
    "version": "22.0.1",
    "webapi_port": null,
    "webapi_url": "https://mriqc.nimh.nih.gov/api/v1"
  },
  "size_t": 127,
  "size_x": 64,
  "size_y": 64,
  "size_z": 34,
  "snr": 6.816499027476536,
  "spacing_tr": 2.3399999141693115,
  "spacing_x": 3.0,
  "spacing_y": 3.0,
  "spacing_z": 3.299999952316284,
  "summary_bg_k": 39.579501326522205,
  "summary_bg_mad": 9.607728290721752,
  "summary_bg_mean": 40.799102783203125,
  "summary_bg_median": 23.44881820678711,
  "summary_bg_n": 66447.0,
  "summary_bg_p05": 13.411810970306398,
  "summary_bg_p95": 121.14724273681638,
  "summary_bg_stdv": 57.558448791503906,
  "summary_fg_k": 2.146668079837994,
  "summary_fg_mad": 130.13630558882403,
  "summary_fg_mean": 926.8564453125,
  "summary_fg_median": 919.6654052734375,
  "summary_fg_n": 39088.0,
  "summary_fg_p05": 733.9240203857422,
  "summary_fg_p95": 1139.6110473632814,
  "summary_fg_stdv": 134.91583251953125,
  "tsnr": 51.626398413442075
}