{
  "aor": 0.005566614173228348,
  "aqi": 0.017196332362204726,
  "bids_meta": {
    "AcquisitionMatrixPE": 64,
    "AcquisitionNumber": 1,
    "AcquisitionTime": "09:34:56.102500",
    "BandwidthPerPixelPhaseEncode": 24.038,
    "BaseResolution": 64,
    "BodyPartExamined": "HEAD",
    "ConsistencyInfo": "N4_VD13A_LATEST_20120616",
    "ConversionSoftware": "dcm2niix",
    "ConversionSoftwareVersion": "v1.0.20181125  GCC6.3.0",
    "DerivedVendorReportedEchoSpacing": 0.000650012,
    "DeviceSerialNumber": "45250",
    "DwellTime": 4.6e-06,
    "EchoTime": 0.033,
    "EchoTrainLength": 64,
    "EffectiveEchoSpacing": 0.000650012,
    "FlipAngle": 90,
    "ImageOrientationPatientDICOM": [
      0.999871,
      -0.0125751,
      -0.0100359,
      0.0104711,
      0.982209,
      -0.187498
    ],
    "ImageType": [
      "ORIGINAL",
      "PRIMARY",
      "M",
      "ND",
      "NORM",
      "MOSAIC"
    ],
    "ImagingFrequency": 123.214,
    "InPlanePhaseEncodingDirectionDICOM": "COL",
    "InstitutionAddress": "Kopernikusstr._26_Graz_Graz_AT_8010",
    "InstitutionName": "KFU",
    "InstitutionalDepartmentName": "Department",
    "MRAcquisitionType": "2D",
    "MagneticFieldStrength": 3,
    "Manufacturer": "Siemens",
    "ManufacturersModelName": "Skyra",
    "Modality": "MR",
    "PartialFourier": 1,
    "PatientPosition": "HFS",
    "PercentPhaseFOV": 100,
    "PhaseEncodingDirection": "j-",
    "PhaseEncodingSteps": 64,
    "PhaseResolution": 1,
    "PixelBandwidth": 1700,
    "ProcedureStepDescription": "KFU_Entw-Psy",
    "ProtocolName": "fMRI_1",
    "PulseSequenceDetails": "%SiemensSeq%_ep2d_pace",
    "ReceiveCoilActiveElements": "HE1-4",
    "ReceiveCoilName": "HeadNeck_20",
    "ReconMatrixPE": 64,
    "RepetitionTime": 2.34,
    "SAR": 0.196971,
    "ScanOptions": "FS",
    "ScanningSequence": "EP",
    "SequenceName": "_epfid2d1_64",
    "SequenceVariant": "SK",
    "SeriesDescription": "fMRI_1",
    "SeriesNumber": 2,
    "ShimSetting": [
      -1621,
      -3726,
      -4386,
      365,
      334,
      -296,
      362,
      -222
    ],
    "SliceThickness": 3,
    "SliceTiming": [
      2.2525,
      2.1825,
      2.115,
      2.0475,
      1.9775,
      1.91,
      1.8425,
      1.775,
      1.705,
      1.6375,
      1.57,
      1.5,
      1.4325,
      1.365,
      1.2975,
      1.2275,
      1.16,
      1.0925,
      1.0225,
      0.955,
      0.8875,
      0.82,
      0.75,
      0.6825,
      0.615,
      0.545,
      0.4775,
      0.41,
      0.34,
      0.2725,
      0.205,
      0.1375,
      0.0675,
      0
    ],
    "SoftwareVersions": "syngo_MR_D13",
    "SpacingBetweenSlices": 3.3,
    "StationName": "FBMTMR1",
    "TaskName": "read",
    "TotalReadoutTime": 0.0409508,
    "TxRefAmp": 327.693,
    "dataset": "ds003126",
    "dcmmeta_affine": [
      [
        -2.9996116161346436,
        0.03141317516565323,
        -0.04030996561050415,
        95.19632720947266
      ],
      [
        0.03772539645433426,
        2.946627616882324,
        -0.6183164119720459,
        -104.91259765625
      ],
      [
        -0.03010762855410576,
        0.5624938607215881,
        3.241305112838745,
        -22.643383026123047
      ],
      [
        0.0,
        0.0,
        0.0,
        1.0
      ]
    ],
    "dcmmeta_reorient_transform": [
      [
        0.0,
        -1.0,
        0.0,
        63.0
      ],
      [
        1.0,
        0.0,
        0.0,
        0.0
      ],
      [
        0.0,
        0.0,
        1.0,
        0.0
      ],
      [
        0.0,
        0.0,
        0.0,
        1.0
      ]
    ],
    "dcmmeta_shape": [
      64,
      64,
      34,
      127
    ],
    "dcmmeta_slice_dim": 2,
    "dcmmeta_version": 0.6,
    "global": {
      "const": {
        "AcquisitionMatrix": [
          64,
          0,
          0,
          64
        ],
        "AngioFlag": "N",
        "BitsAllocated": 16,
        "BitsStored": 12,
        "BodyPartExamined": "HEAD",
        "Columns": 384,
        "EchoNumbers": 1,
        "EchoTime": 33.0,
        "EchoTrainLength": 64,
        "FlipAngle": 90.0,
        "HighBit": 11,
        "ImageOrientationPatient": [
          0.9998705652524,
          -0.0125751315429,
          -0.0100358760717,
          0.01047105862045,
          0.98220917869032,
          -0.1874979632632
        ],
        "ImagePositionPatient": [
          -582.13933412571,
          -546.14928016482,
          107.60997537031
        ],
        "ImageType": [
          "ORIGINAL",
          "PRIMARY",
          "M",
          "ND",
          "NORM",
          "MOSAIC"
        ],
        "ImagedNucleus": "1H",
        "ImagingFrequency": 123.214451,
        "InPlanePhaseEncodingDirection": "COL",
        "MRAcquisitionType": "2D",
        "MagneticFieldStrength": 3.0,
        "Manufacturer": "SIEMENS",
        "ManufacturerModelName": "Skyra",
        "Modality": "MR",
        "NumberOfAverages": 1.0,
        "NumberOfPhaseEncodingSteps": 64,
        "PercentPhaseFieldOfView": 100.0,
        "PercentSampling": 100.0,
        "PerformedProcedureStepStartTime": "093239.192000",
        "PhotometricInterpretation": "MONOCHROME2",
        "PixelBandwidth": 1700.0,
        "PixelRepresentation": 0,
        "PixelSpacing": [
          3.0,
          3.0
        ],
        "ProtocolName": "fMRI_1",
        "RepetitionTime": 2340.0,
        "Rows": 384,
        "SAR": 0.19697104855573,
        "SamplesPerPixel": 1,
        "ScanOptions": "FS",
        "ScanningSequence": "EP",
        "SequenceName": "*epfid2d1_64",
        "SequenceVariant": "SK",
        "SeriesDescription": "fMRI_1",
        "SeriesNumber": 2,
        "SeriesTime": "093545.909000",
        "SliceLocation": -3.7461502690285,
        "SliceThickness": 3.0,
        "SmallestImagePixelValue": 0,
        "SoftwareVersions": "syngo MR D13",
        "SpacingBetweenSlices": 3.2999999485177,
        "SpecificCharacterSet": "ISO_IR 100",
        "StudyID": "1",
        "StudyTime": "093239.146000",
        "TransmitCoilName": "Body",
        "VariableFlipAngleFlag": "N",
        "WindowCenterWidthExplanation": "Algo1",
        "dBdt": 0.0
      },
      "slices": {}
    },
    "modality": "bold",
    "run_id": 1,
    "session_id": "2",
    "subject_id": "047EPKL014029",
    "task_id": "read",
    "time": {
      "samples": {
        "AcquisitionNumber": [
          1,
          2,
          3,
          4,
          5,
          6,
          7,
          8,
          9,
          10,
          11,
          12,
          13,
          14,
          15,
          16,
          17,
          18,
          19,
          20,
          21,
          22,
          23,
          24,
          25,
          26,
          27,
          28,
          29,
          30,
          31,
          32,
          33,
          34,
          35,
          36,
          37,
          38,
          39,
          40,
          41,
          42,
          43,
          44,
          45,
          46,
          47,
          48,
          49,
          50,
          51,
          52,
          53,
          54,
          55,
          56,
          57,
          58,
          59,
          60,
          61,
          62,
          63,
          64,
          65,
          66,
          67,
          68,
          69,
          70,
          71,
          72,
          73,
          74,
          75,
          76,
          77,
          78,
          79,
          80,
          81,
          82,
          83,
          84,
          85,
          86,
          87,
          88,
          89,
          90,
          91,
          92,
          93,
          94,
          95,
          96,
          97,
          98,
          99,
          100,
          101,
          102,
          103,
          104,
          105,
          106,
          107,
          108,
          109,
          110,
          111,
          112,
          113,
          114,
          115,
          116,
          117,
          118,
          119,
          120,
          121,
          122,
          123,
          124,
          125,
          126,
          127
        ],
        "AcquisitionTime": [
          "093456.102500",
          "093458.442500",
          "093500.782500",
          "093503.122500",
          "093505.462500",
          "093507.802500",
          "093510.142500",
          "093512.482500",
          "093514.822500",
          "093517.162500",
          "093519.502500",
          "093521.842500",
          "093524.182500",
          "093526.522500",
          "093528.862500",
          "093531.202500",
          "093533.542500",
          "093535.882500",
          "093538.222500",
          "093540.562500",
          "093542.902500",
          "093545.242500",
          "093547.582500",
          "093549.922500",
          "093552.262500",
          "093554.602500",
          "093556.942500",
          "093559.282500",
          "093601.622500",
          "093603.962500",
          "093606.302500",
          "093608.642500",
          "093610.982500",
          "093613.322500",
          "093615.662500",
          "093618.002500",
          "093620.342500",
          "093622.682500",
          "093625.022500",
          "093627.362500",
          "093629.702500",
          "093632.042500",
          "093634.382500",
          "093636.722500",
          "093639.062500",
          "093641.402500",
          "093643.742500",
          "093646.082500",
          "093648.422500",
          "093650.762500",
          "093653.102500",
          "093655.442500",
          "093657.782500",
          "093700.122500",
          "093702.462500",
          "093704.802500",
          "093707.142500",
          "093709.482500",
          "093711.822500",
          "093714.162500",
          "093716.502500",
          "093718.842500",
          "093721.182500",
          "093723.522500",
          "093725.862500",
          "093728.202500",
          "093730.542500",
          "093732.882500",
          "093735.222500",
          "093737.562500",
          "093739.902500",
          "093742.242500",
          "093744.582500",
          "093746.922500",
          "093749.262500",
          "093751.602500",
          "093753.942500",
          "093756.282500",
          "093758.622500",
          "093800.962500",
          "093803.302500",
          "093805.642500",
          "093807.982500",
          "093810.322500",
          "093812.662500",
          "093815.002500",
          "093817.342500",
          "093819.682500",
          "093822.022500",
          "093824.362500",
          "093826.702500",
          "093829.042500",
          "093831.382500",
          "093833.722500",
          "093836.062500",
          "093838.402500",
          "093840.742500",
          "093843.082500",
          "093845.422500",
          "093847.762500",
          "093850.102500",
          "093852.442500",
          "093854.782500",
          "093857.122500",
          "093859.462500",
          "093901.802500",
          "093904.142500",
          "093906.482500",
          "093908.822500",
          "093911.162500",
          "093913.502500",
          "093915.842500",
          "093918.182500",
          "093920.522500",
          "093922.862500",
          "093925.202500",
          "093927.542500",
          "093929.882500",
          "093932.222500",
          "093934.562500",
          "093936.902500",
          "093939.242500",
          "093941.582500",
          "093943.922500",
          "093946.262500",
          "093948.602500",
          "093950.942500"
        ],
        "ContentTime": [
          "093545.914000",
          "093545.918000",
          "093545.921000",
          "093545.923000",
          "093545.932000",
          "093545.939000",
          "093545.942000",
          "093545.945000",
          "093545.948000",
          "093545.951000",
          "093545.953000",
          "093545.956000",
          "093545.959000",
          "093545.962000",
          "093545.964000",
          "093545.967000",
          "093545.970000",
          "093545.972000",
          "093545.975000",
          "093545.978000",
          "093545.981000",
          "093545.983000",
          "093645.906000",
          "093645.909000",
          "093645.916000",
          "093645.919000",
          "093645.922000",
          "093645.924000",
          "093645.927000",
          "093645.930000",
          "093645.932000",
          "093645.935000",
          "093645.938000",
          "093645.940000",
          "093645.943000",
          "093645.945000",
          "093645.948000",
          "093645.951000",
          "093645.954000",
          "093645.956000",
          "093645.959000",
          "093645.962000",
          "093645.964000",
          "093645.967000",
          "093645.970000",
          "093645.972000",
          "093645.975000",
          "093745.908000",
          "093745.911000",
          "093745.914000",
          "093745.917000",
          "093745.926000",
          "093745.929000",
          "093745.931000",
          "093745.934000",
          "093745.937000",
          "093745.939000",
          "093745.942000",
          "093745.945000",
          "093745.947000",
          "093745.950000",
          "093745.953000",
          "093745.956000",
          "093745.958000",
          "093745.961000",
          "093745.964000",
          "093745.966000",
          "093745.969000",
          "093745.978000",
          "093745.980000",
          "093745.983000",
          "093745.986000",
          "093745.989000",
          "093845.907000",
          "093845.910000",
          "093845.913000",
          "093845.915000",
          "093845.918000",
          "093845.921000",
          "093845.924000",
          "093845.927000",
          "093845.929000",
          "093845.932000",
          "093845.935000",
          "093845.938000",
          "093845.941000",
          "093845.943000",
          "093845.950000",
          "093845.952000",
          "093845.955000",
          "093845.958000",
          "093845.960000",
          "093845.963000",
          "093845.966000",
          "093845.969000",
          "093845.971000",
          "093845.974000",
          "093845.977000",
          "093845.979000",
          "093945.909000",
          "093945.912000",
          "093945.915000",
          "093945.918000",
          "093945.921000",
          "093945.923000",
          "093945.926000",
          "093945.929000",
          "093945.932000",
          "093945.935000",
          "093945.938000",
          "093945.940000",
          "093945.949000",
          "093945.951000",
          "093945.954000",
          "093945.956000",
          "093945.959000",
          "093945.971000",
          "093945.974000",
          "093945.977000",
          "093945.979000",
          "093945.982000",
          "093945.985000",
          "093945.987000",
          "093945.990000",
          "093953.255000",
          "093953.258000",
          "093953.266000"
        ],
        "InstanceCreationTime": [
          "093545.914000",
          "093545.918000",
          "093545.921000",
          "093545.923000",
          "093545.932000",
          "093545.939000",
          "093545.942000",
          "093545.945000",
          "093545.948000",
          "093545.951000",
          "093545.953000",
          "093545.956000",
          "093545.959000",
          "093545.962000",
          "093545.964000",
          "093545.967000",
          "093545.970000",
          "093545.972000",
          "093545.975000",
          "093545.978000",
          "093545.981000",
          "093545.983000",
          "093645.906000",
          "093645.909000",
          "093645.916000",
          "093645.919000",
          "093645.922000",
          "093645.924000",
          "093645.927000",
          "093645.930000",
          "093645.932000",
          "093645.935000",
          "093645.938000",
          "093645.940000",
          "093645.943000",
          "093645.945000",
          "093645.948000",
          "093645.951000",
          "093645.954000",
          "093645.956000",
          "093645.959000",
          "093645.962000",
          "093645.964000",
          "093645.967000",
          "093645.970000",
          "093645.972000",
          "093645.975000",
          "093745.908000",
          "093745.911000",
          "093745.914000",
          "093745.917000",
          "093745.926000",
          "093745.929000",
          "093745.931000",
          "093745.934000",
          "093745.937000",
          "093745.939000",
          "093745.942000",
          "093745.945000",
          "093745.947000",
          "093745.950000",
          "093745.953000",
          "093745.956000",
          "093745.958000",
          "093745.961000",
          "093745.964000",
          "093745.966000",
          "093745.969000",
          "093745.978000",
          "093745.980000",
          "093745.983000",
          "093745.986000",
          "093745.989000",
          "093845.907000",
          "093845.910000",
          "093845.913000",
          "093845.915000",
          "093845.918000",
          "093845.921000",
          "093845.924000",
          "093845.927000",
          "093845.929000",
          "093845.932000",
          "093845.935000",
          "093845.938000",
          "093845.941000",
          "093845.943000",
          "093845.950000",
          "093845.952000",
          "093845.955000",
          "093845.958000",
          "093845.960000",
          "093845.963000",
          "093845.966000",
          "093845.969000",
          "093845.971000",
          "093845.974000",
          "093845.977000",
          "093845.979000",
          "093945.909000",
          "093945.912000",
          "093945.915000",
          "093945.918000",
          "093945.921000",
          "093945.923000",
          "093945.926000",
          "093945.929000",
          "093945.932000",
          "093945.935000",
          "093945.938000",
          "093945.940000",
          "093945.949000",
          "093945.951000",
          "093945.954000",
          "093945.956000",
          "093945.959000",
          "093945.971000",
          "093945.974000",
          "093945.977000",
          "093945.979000",
          "093945.982000",
          "093945.985000",
          "093945.987000",
          "093945.990000",
          "093953.255000",
          "093953.258000",
          "093953.266000"
        ],
        "InstanceNumber": [
          1,
          2,
          3,
          4,
          5,
          6,
          7,
          8,
          9,
          10,
          11,
          12,
          13,
          14,
          15,
          16,
          17,
          18,
          19,
          20,
          21,
          22,
          23,
          24,
          25,
          26,
          27,
          28,
          29,
          30,
          31,
          32,
          33,
          34,
          35,
          36,
          37,
          38,
          39,
          40,
          41,
          42,
          43,
          44,
          45,
          46,
          47,
          48,
          49,
          50,
          51,
          52,
          53,
          54,
          55,
          56,
          57,
          58,
          59,
          60,
          61,
          62,
          63,
          64,
          65,
          66,
          67,
          68,
          69,
          70,
          71,
          72,
          73,
          74,
          75,
          76,
          77,
          78,
          79,
          80,
          81,
          82,
          83,
          84,
          85,
          86,
          87,
          88,
          89,
          90,
          91,
          92,
          93,
          94,
          95,
          96,
          97,
          98,
          99,
          100,
          101,
          102,
          103,
          104,
          105,
          106,
          107,
          108,
          109,
          110,
          111,
          112,
          113,
          114,
          115,
          116,
          117,
          118,
          119,
          120,
          121,
          122,
          123,
          124,
          125,
          126,
          127
        ],
        "LargestImagePixelValue": [
          3198,
          2326,
          2721,
          2567,
          3071,
          2575,
          2596,
          2989,
          2282,
          2331,
          2001,
          2095,
          2285,
          2151,
          2902,
          2733,
          2267,
          2147,
          2507,
          2443,
          2091,
          2891,
          2455,
          2732,
          2028,
          1922,
          2267,
          2657,
          2448,
          2507,
          2110,
          2537,
          1971,
          1838,
          2134,
          2590,
          2156,
          2138,
          2747,
          2800,
          2434,
          2717,
          2255,
          2346,
          2497,
          2439,
          2319,
          2928,
          2787,
          1903,
          1814,
          2525,
          2770,
          2273,
          2550,
          2296,
          2291,
          2476,
          2248,
          1927,
          2244,
          2377,
          1928,
          2596,
          2672,
          2840,
          2756,
          2366,
          2516,
          2639,
          2105,
          2394,
          2056,
          2218,
          2105,
          2157,
          2490,
          3175,
          2146,
          2179,
          2627,
          2270,
          2219,
          2531,
          1858,
          2298,
          2748,
          2680,
          2682,
          2539,
          3037,
          2219,
          2532,
          2268,
          2154,
          2566,
          2340,
          2195,
          2384,
          2782,
          2151,
          2202,
          2383,
          2527,
          2795,
          2471,
          2252,
          2933,
          2747,
          2317,
          2038,
          1762,
          2332,
          2673,
          2330,
          2747,
          3102,
          2175,
          2536,
          2534,
          2283,
          2617,
          2523,
          2313,
          2151,
          2512,
          1933
        ],
        "WindowCenter": [
          832.0,
          828.0,
          831.0,
          830.0,
          830.0,
          828.0,
          827.0,
          826.0,
          825.0,
          826.0,
          825.0,
          827.0,
          829.0,
          829.0,
          828.0,
          827.0,
          825.0,
          827.0,
          829.0,
          831.0,
          828.0,
          829.0,
          829.0,
          828.0,
          826.0,
          826.0,
          829.0,
          828.0,
          826.0,
          826.0,
          828.0,
          827.0,
          824.0,
          825.0,
          827.0,
          825.0,
          825.0,
          830.0,
          829.0,
          826.0,
          824.0,
          827.0,
          826.0,
          827.0,
          829.0,
          831.0,
          827.0,
          827.0,
          823.0,
          822.0,
          827.0,
          829.0,
          827.0,
          824.0,
          825.0,
          826.0,
          826.0,
          827.0,
          826.0,
          828.0,
          827.0,
          826.0,
          828.0,
          830.0,
          829.0,
          826.0,
          824.0,
          825.0,
          827.0,
          825.0,
          824.0,
          828.0,
          828.0,
          830.0,
          826.0,
          828.0,
          827.0,
          824.0,
          823.0,
          825.0,
          826.0,
          823.0,
          826.0,
          828.0,
          825.0,
          831.0,
          830.0,
          829.0,
          828.0,
          827.0,
          829.0,
          826.0,
          826.0,
          826.0,
          828.0,
          827.0,
          826.0,
          829.0,
          830.0,
          827.0,
          824.0,
          826.0,
          827.0,
          829.0,
          828.0,
          828.0,
          826.0,
          831.0,
          825.0,
          827.0,
          825.0,
          827.0,
          829.0,
          830.0,
          828.0,
          827.0,
          832.0,
          829.0,
          828.0,
          829.0,
          828.0,
          830.0,
          827.0,
          826.0,
          826.0,
          828.0,
          828.0
        ],
        "WindowWidth": [
          1740.0,
          1729.0,
          1738.0,
          1733.0,
          1736.0,
          1730.0,
          1727.0,
          1728.0,
          1724.0,
          1725.0,
          1724.0,
          1728.0,
          1732.0,
          1732.0,
          1732.0,
          1729.0,
          1723.0,
          1727.0,
          1731.0,
          1737.0,
          1730.0,
          1734.0,
          1732.0,
          1732.0,
          1725.0,
          1725.0,
          1733.0,
          1732.0,
          1726.0,
          1727.0,
          1731.0,
          1727.0,
          1720.0,
          1722.0,
          1726.0,
          1724.0,
          1722.0,
          1734.0,
          1734.0,
          1725.0,
          1720.0,
          1726.0,
          1724.0,
          1727.0,
          1729.0,
          1739.0,
          1728.0,
          1727.0,
          1717.0,
          1714.0,
          1726.0,
          1732.0,
          1728.0,
          1720.0,
          1724.0,
          1725.0,
          1725.0,
          1726.0,
          1724.0,
          1727.0,
          1728.0,
          1725.0,
          1726.0,
          1733.0,
          1732.0,
          1725.0,
          1721.0,
          1721.0,
          1728.0,
          1721.0,
          1719.0,
          1729.0,
          1728.0,
          1733.0,
          1725.0,
          1730.0,
          1726.0,
          1722.0,
          1717.0,
          1723.0,
          1726.0,
          1719.0,
          1725.0,
          1727.0,
          1721.0,
          1737.0,
          1733.0,
          1733.0,
          1729.0,
          1728.0,
          1731.0,
          1722.0,
          1723.0,
          1724.0,
          1727.0,
          1728.0,
          1724.0,
          1730.0,
          1732.0,
          1726.0,
          1720.0,
          1726.0,
          1727.0,
          1730.0,
          1728.0,
          1729.0,
          1724.0,
          1736.0,
          1722.0,
          1730.0,
          1721.0,
          1725.0,
          1732.0,
          1737.0,
          1730.0,
          1729.0,
          1740.0,
          1729.0,
          1728.0,
          1734.0,
          1730.0,
          1734.0,
          1726.0,
          1723.0,
          1724.0,
          1730.0,
          1729.0
        ]
      },
      "slices": {}
    }
  },
  "dummy_trs": 0,
  "dvars_nstd": 46.45462405500001,
  "dvars_std": 1.5090736388095247,
  "dvars_vstd": 1.0504825046825395,
  "efc": 0.6077833216833647,
  "fber": 1440.4273681640625,
  "fd_mean": 0.53787973121059,
  "fd_num": 114,
  "fd_perc": 89.76377952755905,
  "fwhm_avg": 1.6878516238082772,
  "fwhm_x": 1.5852333333333333,
  "fwhm_y": 1.8907366666666665,
  "fwhm_z": 1.587584871424832,
  "gcor": 0.0279382,
  "gsr_x": -0.00645782332867384,
  "gsr_y": 0.05011195316910744,
  "provenance": {
    "md5sum": "d0e0f12de14295a78468e2afcd8308fe",
    "settings": {
      "fd_thres": 0.2,
      "testing": false
    },
    "software": "mriqc",
    "version": "22.0.1",
    "webapi_port": null,
    "webapi_url": "https://mriqc.nimh.nih.gov/api/v1"
  },
  "size_t": 127,
  "size_x": 64,
  "size_y": 64,
  "size_z": 34,
  "snr": 6.864269808526693,
  "spacing_tr": 2.3399999141693115,
  "spacing_x": 3.0,
  "spacing_y": 3.0,
  "spacing_z": 3.299999952316284,
  "summary_bg_k": 39.090656533009636,
  "summary_bg_mad": 9.409273355471461,
  "summary_bg_mean": 40.18922805786133,
  "summary_bg_median": 23.299213409423828,
  "summary_bg_n": 66453.0,
  "summary_bg_p05": 13.354331016540527,
  "summary_bg_p95": 117.58110504150382,
  "summary_bg_stdv": 57.2099494934082,
  "summary_fg_k": 2.317453352517992,
  "summary_fg_mad": 127.87733705356618,
  "summary_fg_mean": 923.2976684570312,
  "summary_fg_median": 916.0078735351562,
  "summary_fg_n": 39053.0,
  "summary_fg_p05": 733.58427734375,
  "summary_fg_p95": 1133.0346679687502,
  "summary_fg_stdv": 133.44407653808594,
  "tsnr": 51.4579767533578
}