{
  "aor": 0.011708976377952755,
  "aqi": 0.018582840078740157,
  "bids_meta": {
    "AcquisitionMatrixPE": 64,
    "AcquisitionNumber": 1,
    "AcquisitionTime": "14:10:13.665000",
    "BandwidthPerPixelPhaseEncode": 24.038,
    "BaseResolution": 64,
    "BodyPartExamined": "HEAD",
    "ConsistencyInfo": "N4_VD13A_LATEST_20120616",
    "ConversionSoftware": "dcm2niix",
    "ConversionSoftwareVersion": "v1.0.20181125  GCC6.3.0",
    "DerivedVendorReportedEchoSpacing": 0.000650012,
    "DeviceSerialNumber": "45250",
    "DwellTime": 4.6e-06,
    "EchoTime": 0.033,
    "EchoTrainLength": 64,
    "EffectiveEchoSpacing": 0.000650012,
    "FlipAngle": 90,
    "ImageOrientationPatientDICOM": [
      0.992939,
      0.0122883,
      -0.117986,
      -0.0242669,
      0.994628,
      -0.100634
    ],
    "ImageType": [
      "ORIGINAL",
      "PRIMARY",
      "M",
      "ND",
      "NORM",
      "MOSAIC"
    ],
    "ImagingFrequency": 123.214,
    "InPlanePhaseEncodingDirectionDICOM": "COL",
    "InstitutionAddress": "Kopernikusstr._26_Graz_Graz_AT_8010",
    "InstitutionName": "KFU",
    "InstitutionalDepartmentName": "Department",
    "MRAcquisitionType": "2D",
    "MagneticFieldStrength": 3,
    "Manufacturer": "Siemens",
    "ManufacturersModelName": "Skyra",
    "Modality": "MR",
    "PartialFourier": 1,
    "PatientPosition": "HFS",
    "PercentPhaseFOV": 100,
    "PhaseEncodingDirection": "j-",
    "PhaseEncodingSteps": 64,
    "PhaseResolution": 1,
    "PixelBandwidth": 1700,
    "ProcedureStepDescription": "KFU_Entw-Psy",
    "ProtocolName": "fMRI_3",
    "PulseSequenceDetails": "%SiemensSeq%_ep2d_pace",
    "ReceiveCoilActiveElements": "HE1-4",
    "ReceiveCoilName": "HeadNeck_20",
    "ReconMatrixPE": 64,
    "RepetitionTime": 2.34,
    "SAR": 0.172894,
    "ScanOptions": "FS",
    "ScanningSequence": "EP",
    "SequenceName": "_epfid2d1_64",
    "SequenceVariant": "SK",
    "SeriesDescription": "fMRI_3",
    "SeriesNumber": 8,
    "ShimSetting": [
      -1603,
      -3714,
      -4504,
      362,
      340,
      -320,
      -300,
      -277
    ],
    "SliceThickness": 3,
    "SliceTiming": [
      2.25,
      2.1825,
      2.115,
      2.0475,
      1.9775,
      1.91,
      1.8425,
      1.7725,
      1.705,
      1.6375,
      1.57,
      1.5,
      1.4325,
      1.365,
      1.295,
      1.2275,
      1.16,
      1.0925,
      1.0225,
      0.955,
      0.8875,
      0.8175,
      0.75,
      0.6825,
      0.6125,
      0.545,
      0.4775,
      0.41,
      0.34,
      0.2725,
      0.205,
      0.135,
      0.0675,
      0
    ],
    "SoftwareVersions": "syngo_MR_D13",
    "SpacingBetweenSlices": 3.3,
    "StationName": "FBMTMR1",
    "TaskName": "read",
    "TotalReadoutTime": 0.0409508,
    "TxRefAmp": 354.576,
    "dataset": "ds003126",
    "dcmmeta_affine": [
      [
        -2.9788177013397217,
        -0.07280069589614868,
        -0.3831802010536194,
        93.52519226074219
      ],
      [
        -0.036864761263132095,
        2.9838826656341553,
        -0.33919432759284973,
        -102.00093078613281
      ],
      [
        -0.35395708680152893,
        0.3019006848335266,
        3.2600796222686768,
        -26.451053619384766
      ],
      [
        0.0,
        0.0,
        0.0,
        1.0
      ]
    ],
    "dcmmeta_reorient_transform": [
      [
        0.0,
        -1.0,
        0.0,
        63.0
      ],
      [
        1.0,
        0.0,
        0.0,
        0.0
      ],
      [
        0.0,
        0.0,
        1.0,
        0.0
      ],
      [
        0.0,
        0.0,
        0.0,
        1.0
      ]
    ],
    "dcmmeta_shape": [
      64,
      64,
      34,
      127
    ],
    "dcmmeta_slice_dim": 2,
    "dcmmeta_version": 0.6,
    "global": {
      "const": {
        "AcquisitionMatrix": [
          64,
          0,
          0,
          64
        ],
        "AngioFlag": "N",
        "BitsAllocated": 16,
        "BitsStored": 12,
        "BodyPartExamined": "HEAD",
        "Columns": 384,
        "EchoNumbers": 1,
        "EchoTime": 33.0,
        "EchoTrainLength": 64,
        "FlipAngle": 90.0,
        "HighBit": 11,
        "ImageOrientationPatient": [
          0.9929392604538,
          0.01228825347968,
          -0.117985693522,
          -0.0242668988528,
          0.99462757015572,
          -0.1006335645111
        ],
        "ImagePositionPatient": [
          -553.90148542135,
          -569.30327282921,
          97.50593423472
        ],
        "ImageType": [
          "ORIGINAL",
          "PRIMARY",
          "M",
          "ND",
          "NORM",
          "MOSAIC"
        ],
        "ImagedNucleus": "1H",
        "ImagingFrequency": 123.214373,
        "InPlanePhaseEncodingDirection": "COL",
        "MRAcquisitionType": "2D",
        "MagneticFieldStrength": 3.0,
        "Manufacturer": "SIEMENS",
        "ManufacturerModelName": "Skyra",
        "Modality": "MR",
        "NumberOfAverages": 1.0,
        "NumberOfPhaseEncodingSteps": 64,
        "PercentPhaseFieldOfView": 100.0,
        "PercentSampling": 100.0,
        "PerformedProcedureStepStartTime": "133748.983000",
        "PhotometricInterpretation": "MONOCHROME2",
        "PixelBandwidth": 1700.0,
        "PixelRepresentation": 0,
        "PixelSpacing": [
          3.0,
          3.0
        ],
        "ProtocolName": "fMRI_3",
        "RepetitionTime": 2340.0,
        "Rows": 384,
        "SAR": 0.17289369384744,
        "SamplesPerPixel": 1,
        "ScanOptions": "FS",
        "ScanningSequence": "EP",
        "SequenceName": "*epfid2d1_64",
        "SequenceVariant": "SK",
        "SeriesDescription": "fMRI_3",
        "SeriesNumber": 8,
        "SeriesTime": "141110.639000",
        "SliceLocation": -26.506487268207,
        "SliceThickness": 3.0,
        "SmallestImagePixelValue": 0,
        "SoftwareVersions": "syngo MR D13",
        "SpacingBetweenSlices": 3.2999999316272,
        "SpecificCharacterSet": "ISO_IR 100",
        "StudyID": "1",
        "StudyTime": "133748.935000",
        "TransmitCoilName": "Body",
        "VariableFlipAngleFlag": "N",
        "WindowCenterWidthExplanation": "Algo1",
        "dBdt": 0.0
      },
      "slices": {}
    },
    "modality": "bold",
    "run_id": 3,
    "session_id": "2",
    "subject_id": "047EPKL013033",
    "task_id": "read",
    "time": {
      "samples": {
        "AcquisitionNumber": [
          1,
          2,
          3,
          4,
          5,
          6,
          7,
          8,
          9,
          10,
          11,
          12,
          13,
          14,
          15,
          16,
          17,
          18,
          19,
          20,
          21,
          22,
          23,
          24,
          25,
          26,
          27,
          28,
          29,
          30,
          31,
          32,
          33,
          34,
          35,
          36,
          37,
          38,
          39,
          40,
          41,
          42,
          43,
          44,
          45,
          46,
          47,
          48,
          49,
          50,
          51,
          52,
          53,
          54,
          55,
          56,
          57,
          58,
          59,
          60,
          61,
          62,
          63,
          64,
          65,
          66,
          67,
          68,
          69,
          70,
          71,
          72,
          73,
          74,
          75,
          76,
          77,
          78,
          79,
          80,
          81,
          82,
          83,
          84,
          85,
          86,
          87,
          88,
          89,
          90,
          91,
          92,
          93,
          94,
          95,
          96,
          97,
          98,
          99,
          100,
          101,
          102,
          103,
          104,
          105,
          106,
          107,
          108,
          109,
          110,
          111,
          112,
          113,
          114,
          115,
          116,
          117,
          118,
          119,
          120,
          121,
          122,
          123,
          124,
          125,
          126,
          127
        ],
        "AcquisitionTime": [
          "141013.665000",
          "141016.005000",
          "141018.345000",
          "141020.685000",
          "141023.025000",
          "141025.365000",
          "141027.705000",
          "141030.045000",
          "141032.385000",
          "141034.725000",
          "141037.065000",
          "141039.405000",
          "141041.745000",
          "141044.085000",
          "141046.425000",
          "141048.765000",
          "141051.105000",
          "141053.445000",
          "141055.785000",
          "141058.125000",
          "141100.465000",
          "141102.805000",
          "141105.145000",
          "141107.485000",
          "141109.825000",
          "141112.165000",
          "141114.505000",
          "141116.845000",
          "141119.185000",
          "141121.525000",
          "141123.865000",
          "141126.205000",
          "141128.545000",
          "141130.885000",
          "141133.225000",
          "141135.565000",
          "141137.905000",
          "141140.245000",
          "141142.585000",
          "141144.925000",
          "141147.265000",
          "141149.605000",
          "141151.945000",
          "141154.285000",
          "141156.625000",
          "141158.965000",
          "141201.305000",
          "141203.645000",
          "141205.985000",
          "141208.325000",
          "141210.665000",
          "141213.005000",
          "141215.345000",
          "141217.685000",
          "141220.025000",
          "141222.365000",
          "141224.705000",
          "141227.045000",
          "141229.385000",
          "141231.725000",
          "141234.065000",
          "141236.405000",
          "141238.745000",
          "141241.085000",
          "141243.425000",
          "141245.765000",
          "141248.105000",
          "141250.445000",
          "141252.785000",
          "141255.125000",
          "141257.465000",
          "141259.805000",
          "141302.145000",
          "141304.485000",
          "141306.825000",
          "141309.165000",
          "141311.505000",
          "141313.845000",
          "141316.185000",
          "141318.525000",
          "141320.865000",
          "141323.205000",
          "141325.545000",
          "141327.885000",
          "141330.225000",
          "141332.565000",
          "141334.905000",
          "141337.245000",
          "141339.585000",
          "141341.925000",
          "141344.265000",
          "141346.605000",
          "141348.945000",
          "141351.285000",
          "141353.625000",
          "141355.965000",
          "141358.305000",
          "141400.645000",
          "141402.985000",
          "141405.325000",
          "141407.665000",
          "141410.005000",
          "141412.345000",
          "141414.685000",
          "141417.025000",
          "141419.365000",
          "141421.705000",
          "141424.045000",
          "141426.385000",
          "141428.725000",
          "141431.065000",
          "141433.405000",
          "141435.745000",
          "141438.085000",
          "141440.425000",
          "141442.765000",
          "141445.105000",
          "141447.445000",
          "141449.785000",
          "141452.125000",
          "141454.465000",
          "141456.805000",
          "141459.145000",
          "141501.485000",
          "141503.825000",
          "141506.165000",
          "141508.505000"
        ],
        "ContentTime": [
          "141110.643000",
          "141110.647000",
          "141110.650000",
          "141110.652000",
          "141110.655000",
          "141110.658000",
          "141110.661000",
          "141110.663000",
          "141110.666000",
          "141110.668000",
          "141110.671000",
          "141110.674000",
          "141110.676000",
          "141110.679000",
          "141110.681000",
          "141110.684000",
          "141110.686000",
          "141110.689000",
          "141110.692000",
          "141110.694000",
          "141110.697000",
          "141110.700000",
          "141110.702000",
          "141110.705000",
          "141110.707000",
          "141210.638000",
          "141210.642000",
          "141210.644000",
          "141210.647000",
          "141210.650000",
          "141210.653000",
          "141210.656000",
          "141210.659000",
          "141210.661000",
          "141210.664000",
          "141210.667000",
          "141210.670000",
          "141210.673000",
          "141210.676000",
          "141210.678000",
          "141210.681000",
          "141210.684000",
          "141210.687000",
          "141210.690000",
          "141210.692000",
          "141210.695000",
          "141210.698000",
          "141210.701000",
          "141210.704000",
          "141210.707000",
          "141310.637000",
          "141310.641000",
          "141310.643000",
          "141310.646000",
          "141310.649000",
          "141310.652000",
          "141310.655000",
          "141310.658000",
          "141310.661000",
          "141310.663000",
          "141310.666000",
          "141310.669000",
          "141310.672000",
          "141310.675000",
          "141310.678000",
          "141310.681000",
          "141310.683000",
          "141310.686000",
          "141310.689000",
          "141310.692000",
          "141310.694000",
          "141310.697000",
          "141310.700000",
          "141310.703000",
          "141310.705000",
          "141310.708000",
          "141410.636000",
          "141410.639000",
          "141410.647000",
          "141410.650000",
          "141410.652000",
          "141410.655000",
          "141410.658000",
          "141410.660000",
          "141410.663000",
          "141410.666000",
          "141410.668000",
          "141410.671000",
          "141410.674000",
          "141410.677000",
          "141410.680000",
          "141410.682000",
          "141410.685000",
          "141410.687000",
          "141410.690000",
          "141410.693000",
          "141410.695000",
          "141410.698000",
          "141410.700000",
          "141410.703000",
          "141410.706000",
          "141410.709000",
          "141509.304000",
          "141509.308000",
          "141509.310000",
          "141509.313000",
          "141509.317000",
          "141509.322000",
          "141509.325000",
          "141509.328000",
          "141509.331000",
          "141509.334000",
          "141509.337000",
          "141509.340000",
          "141509.344000",
          "141509.347000",
          "141509.350000",
          "141509.353000",
          "141509.356000",
          "141509.358000",
          "141509.361000",
          "141509.364000",
          "141509.367000",
          "141509.370000",
          "141509.373000",
          "141509.376000",
          "141509.379000"
        ],
        "InstanceCreationTime": [
          "141110.643000",
          "141110.647000",
          "141110.650000",
          "141110.652000",
          "141110.655000",
          "141110.658000",
          "141110.661000",
          "141110.663000",
          "141110.666000",
          "141110.668000",
          "141110.671000",
          "141110.674000",
          "141110.676000",
          "141110.679000",
          "141110.681000",
          "141110.684000",
          "141110.686000",
          "141110.689000",
          "141110.692000",
          "141110.694000",
          "141110.697000",
          "141110.700000",
          "141110.702000",
          "141110.705000",
          "141110.707000",
          "141210.638000",
          "141210.642000",
          "141210.644000",
          "141210.647000",
          "141210.650000",
          "141210.653000",
          "141210.656000",
          "141210.659000",
          "141210.661000",
          "141210.664000",
          "141210.667000",
          "141210.670000",
          "141210.673000",
          "141210.676000",
          "141210.678000",
          "141210.681000",
          "141210.684000",
          "141210.687000",
          "141210.690000",
          "141210.692000",
          "141210.695000",
          "141210.698000",
          "141210.701000",
          "141210.704000",
          "141210.707000",
          "141310.637000",
          "141310.641000",
          "141310.643000",
          "141310.646000",
          "141310.649000",
          "141310.652000",
          "141310.655000",
          "141310.658000",
          "141310.661000",
          "141310.663000",
          "141310.666000",
          "141310.669000",
          "141310.672000",
          "141310.675000",
          "141310.678000",
          "141310.681000",
          "141310.683000",
          "141310.686000",
          "141310.689000",
          "141310.692000",
          "141310.694000",
          "141310.697000",
          "141310.700000",
          "141310.703000",
          "141310.705000",
          "141310.708000",
          "141410.636000",
          "141410.639000",
          "141410.647000",
          "141410.650000",
          "141410.652000",
          "141410.655000",
          "141410.658000",
          "141410.660000",
          "141410.663000",
          "141410.666000",
          "141410.668000",
          "141410.671000",
          "141410.674000",
          "141410.677000",
          "141410.680000",
          "141410.682000",
          "141410.685000",
          "141410.687000",
          "141410.690000",
          "141410.693000",
          "141410.695000",
          "141410.698000",
          "141410.700000",
          "141410.703000",
          "141410.706000",
          "141410.709000",
          "141509.304000",
          "141509.308000",
          "141509.310000",
          "141509.313000",
          "141509.317000",
          "141509.322000",
          "141509.325000",
          "141509.328000",
          "141509.331000",
          "141509.334000",
          "141509.337000",
          "141509.340000",
          "141509.344000",
          "141509.347000",
          "141509.350000",
          "141509.353000",
          "141509.356000",
          "141509.358000",
          "141509.361000",
          "141509.364000",
          "141509.367000",
          "141509.370000",
          "141509.373000",
          "141509.376000",
          "141509.379000"
        ],
        "InstanceNumber": [
          1,
          2,
          3,
          4,
          5,
          6,
          7,
          8,
          9,
          10,
          11,
          12,
          13,
          14,
          15,
          16,
          17,
          18,
          19,
          20,
          21,
          22,
          23,
          24,
          25,
          26,
          27,
          28,
          29,
          30,
          31,
          32,
          33,
          34,
          35,
          36,
          37,
          38,
          39,
          40,
          41,
          42,
          43,
          44,
          45,
          46,
          47,
          48,
          49,
          50,
          51,
          52,
          53,
          54,
          55,
          56,
          57,
          58,
          59,
          60,
          61,
          62,
          63,
          64,
          65,
          66,
          67,
          68,
          69,
          70,
          71,
          72,
          73,
          74,
          75,
          76,
          77,
          78,
          79,
          80,
          81,
          82,
          83,
          84,
          85,
          86,
          87,
          88,
          89,
          90,
          91,
          92,
          93,
          94,
          95,
          96,
          97,
          98,
          99,
          100,
          101,
          102,
          103,
          104,
          105,
          106,
          107,
          108,
          109,
          110,
          111,
          112,
          113,
          114,
          115,
          116,
          117,
          118,
          119,
          120,
          121,
          122,
          123,
          124,
          125,
          126,
          127
        ],
        "LargestImagePixelValue": [
          2061,
          2283,
          2563,
          2272,
          1662,
          1978,
          2646,
          2376,
          2503,
          2265,
          2354,
          1700,
          1734,
          1918,
          2602,
          1768,
          2289,
          2285,
          2132,
          1909,
          2288,
          2725,
          1680,
          1793,
          1937,
          2030,
          2442,
          2025,
          1925,
          1745,
          1801,
          1871,
          2372,
          1746,
          1733,
          2597,
          2109,
          1829,
          2081,
          2801,
          1754,
          1817,
          1879,
          2170,
          2228,
          1968,
          2121,
          2275,
          3419,
          2315,
          2168,
          2196,
          2497,
          1732,
          2456,
          2573,
          2104,
          1678,
          1682,
          2154,
          1821,
          2136,
          2489,
          1843,
          2123,
          2102,
          1938,
          2045,
          2080,
          1982,
          1834,
          1915,
          2501,
          1851,
          2227,
          3006,
          1948,
          1926,
          3036,
          2940,
          1882,
          1731,
          2322,
          1980,
          2279,
          2168,
          2397,
          1873,
          1847,
          1887,
          2896,
          1694,
          1875,
          3213,
          2434,
          1858,
          1777,
          2029,
          2428,
          2290,
          2097,
          1700,
          3046,
          2327,
          2241,
          2242,
          2698,
          1972,
          1906,
          2161,
          2790,
          3106,
          2150,
          1851,
          1777,
          2231,
          2530,
          2067,
          2166,
          1727,
          2153,
          2418,
          2106,
          2145,
          1831,
          2130,
          3234
        ],
        "WindowCenter": [
          748.0,
          748.0,
          748.0,
          746.0,
          745.0,
          749.0,
          747.0,
          746.0,
          746.0,
          747.0,
          746.0,
          746.0,
          747.0,
          747.0,
          746.0,
          748.0,
          747.0,
          748.0,
          747.0,
          746.0,
          746.0,
          746.0,
          745.0,
          746.0,
          746.0,
          747.0,
          746.0,
          747.0,
          748.0,
          747.0,
          747.0,
          753.0,
          748.0,
          746.0,
          748.0,
          751.0,
          747.0,
          747.0,
          748.0,
          748.0,
          747.0,
          748.0,
          748.0,
          750.0,
          750.0,
          749.0,
          749.0,
          750.0,
          750.0,
          748.0,
          748.0,
          749.0,
          749.0,
          750.0,
          750.0,
          750.0,
          748.0,
          747.0,
          749.0,
          750.0,
          748.0,
          751.0,
          751.0,
          748.0,
          750.0,
          751.0,
          749.0,
          749.0,
          748.0,
          750.0,
          750.0,
          750.0,
          750.0,
          750.0,
          751.0,
          751.0,
          750.0,
          751.0,
          753.0,
          749.0,
          747.0,
          749.0,
          751.0,
          749.0,
          750.0,
          750.0,
          749.0,
          749.0,
          749.0,
          749.0,
          751.0,
          749.0,
          750.0,
          753.0,
          750.0,
          749.0,
          750.0,
          753.0,
          751.0,
          750.0,
          751.0,
          750.0,
          753.0,
          752.0,
          751.0,
          751.0,
          751.0,
          747.0,
          755.0,
          757.0,
          754.0,
          756.0,
          752.0,
          753.0,
          752.0,
          752.0,
          754.0,
          752.0,
          752.0,
          753.0,
          754.0,
          754.0,
          751.0,
          752.0,
          754.0,
          755.0,
          753.0
        ],
        "WindowWidth": [
          1583.0,
          1584.0,
          1582.0,
          1579.0,
          1575.0,
          1585.0,
          1580.0,
          1579.0,
          1580.0,
          1580.0,
          1576.0,
          1578.0,
          1581.0,
          1580.0,
          1579.0,
          1581.0,
          1581.0,
          1583.0,
          1580.0,
          1577.0,
          1578.0,
          1579.0,
          1574.0,
          1578.0,
          1579.0,
          1579.0,
          1578.0,
          1581.0,
          1582.0,
          1578.0,
          1579.0,
          1595.0,
          1582.0,
          1578.0,
          1584.0,
          1590.0,
          1581.0,
          1580.0,
          1582.0,
          1584.0,
          1581.0,
          1582.0,
          1584.0,
          1588.0,
          1587.0,
          1586.0,
          1586.0,
          1587.0,
          1587.0,
          1584.0,
          1583.0,
          1587.0,
          1586.0,
          1587.0,
          1588.0,
          1590.0,
          1583.0,
          1581.0,
          1585.0,
          1589.0,
          1584.0,
          1589.0,
          1589.0,
          1582.0,
          1587.0,
          1589.0,
          1585.0,
          1586.0,
          1584.0,
          1588.0,
          1589.0,
          1589.0,
          1589.0,
          1587.0,
          1590.0,
          1591.0,
          1588.0,
          1589.0,
          1596.0,
          1586.0,
          1581.0,
          1586.0,
          1591.0,
          1585.0,
          1588.0,
          1587.0,
          1585.0,
          1586.0,
          1585.0,
          1587.0,
          1590.0,
          1586.0,
          1588.0,
          1596.0,
          1589.0,
          1586.0,
          1586.0,
          1594.0,
          1592.0,
          1589.0,
          1591.0,
          1588.0,
          1596.0,
          1593.0,
          1591.0,
          1590.0,
          1590.0,
          1586.0,
          1596.0,
          1606.0,
          1597.0,
          1603.0,
          1595.0,
          1596.0,
          1592.0,
          1594.0,
          1600.0,
          1592.0,
          1594.0,
          1595.0,
          1598.0,
          1598.0,
          1591.0,
          1594.0,
          1597.0,
          1600.0,
          1596.0
        ]
      },
      "slices": {}
    }
  },
  "dummy_trs": 0,
  "dvars_nstd": 39.80715044753967,
  "dvars_std": 1.3437385638888895,
  "dvars_vstd": 1.096701323015873,
  "efc": 0.554656579514591,
  "fber": 1429.9140625,
  "fd_mean": 0.6461201002819331,
  "fd_num": 118,
  "fd_perc": 92.91338582677166,
  "fwhm_avg": 1.629513076528448,
  "fwhm_x": 1.5399198776181637,
  "fwhm_y": 1.788949857827039,
  "fwhm_z": 1.5596694941401417,
  "gcor": 0.053633,
  "gsr_x": -0.006419808603823185,
  "gsr_y": 0.029231751337647438,
  "provenance": {
    "md5sum": "0b6d7a4c7b1eff21cd5b20b6320d4cd5",
    "settings": {
      "fd_thres": 0.2,
      "testing": false
    },
    "software": "mriqc",
    "version": "22.0.1",
    "webapi_port": null,
    "webapi_url": "https://mriqc.nimh.nih.gov/api/v1"
  },
  "size_t": 127,
  "size_x": 64,
  "size_y": 64,
  "size_z": 34,
  "snr": 7.027464610774352,
  "spacing_tr": 2.3399999141693115,
  "spacing_x": 3.000000238418579,
  "spacing_y": 3.000000238418579,
  "spacing_z": 3.3000004291534424,
  "summary_bg_k": 76.57770737295056,
  "summary_bg_mad": 7.658164966217482,
  "summary_bg_mean": 31.426359176635742,
  "summary_bg_median": 22.1102352142334,
  "summary_bg_n": 75601.0,
  "summary_bg_p05": 13.039369583129883,
  "summary_bg_p95": 76.6850357055664,
  "summary_bg_stdv": 35.98199462890625,
  "summary_fg_k": 2.3131493895163926,
  "summary_fg_mad": 120.52269256448886,
  "summary_fg_mean": 854.0437622070312,
  "summary_fg_median": 851.2991943359375,
  "summary_fg_n": 31971.0,
  "summary_fg_p05": 677.1653442382812,
  "summary_fg_p95": 1037.9960327148438,
  "summary_fg_stdv": 121.1369857788086,
  "tsnr": 46.45595428929664
}