{
  "aor": 0.0045561111111111115,
  "aqi": 0.015354707936507938,
  "bids_meta": {
    "AcquisitionMatrixPE": 64,
    "AcquisitionNumber": 1,
    "AcquisitionTime": "14:04:32.737500",
    "BandwidthPerPixelPhaseEncode": 24.038,
    "BaseResolution": 64,
    "BodyPartExamined": "HEAD",
    "ConsistencyInfo": "N4_VD13A_LATEST_20120616",
    "ConversionSoftware": "dcm2niix",
    "ConversionSoftwareVersion": "v1.0.20181125  GCC6.3.0",
    "DerivedVendorReportedEchoSpacing": 0.000650012,
    "DeviceSerialNumber": "45250",
    "DwellTime": 4.6e-06,
    "EchoTime": 0.033,
    "EchoTrainLength": 64,
    "EffectiveEchoSpacing": 0.000650012,
    "FlipAngle": 90,
    "ImageOrientationPatientDICOM": [
      0.992939,
      0.0122883,
      -0.117986,
      -0.0242669,
      0.994628,
      -0.100634
    ],
    "ImageType": [
      "ORIGINAL",
      "PRIMARY",
      "M",
      "ND",
      "NORM",
      "MOSAIC"
    ],
    "ImagingFrequency": 123.214,
    "InPlanePhaseEncodingDirectionDICOM": "COL",
    "InstitutionAddress": "Kopernikusstr._26_Graz_Graz_AT_8010",
    "InstitutionName": "KFU",
    "InstitutionalDepartmentName": "Department",
    "MRAcquisitionType": "2D",
    "MagneticFieldStrength": 3,
    "Manufacturer": "Siemens",
    "ManufacturersModelName": "Skyra",
    "Modality": "MR",
    "PartialFourier": 1,
    "PatientPosition": "HFS",
    "PercentPhaseFOV": 100,
    "PhaseEncodingDirection": "j-",
    "PhaseEncodingSteps": 64,
    "PhaseResolution": 1,
    "PixelBandwidth": 1700,
    "ProcedureStepDescription": "KFU_Entw-Psy",
    "ProtocolName": "fMRI_2",
    "PulseSequenceDetails": "%SiemensSeq%_ep2d_pace",
    "ReceiveCoilActiveElements": "HE1-4",
    "ReceiveCoilName": "HeadNeck_20",
    "ReconMatrixPE": 64,
    "RepetitionTime": 2.34,
    "SAR": 0.172894,
    "ScanOptions": "FS",
    "ScanningSequence": "EP",
    "SequenceName": "_epfid2d1_64",
    "SequenceVariant": "SK",
    "SeriesDescription": "fMRI_2",
    "SeriesNumber": 5,
    "ShimSetting": [
      -1603,
      -3714,
      -4504,
      362,
      340,
      -320,
      -300,
      -277
    ],
    "SliceThickness": 3,
    "SliceTiming": [
      2.2525,
      2.1825,
      2.115,
      2.0475,
      1.9775,
      1.91,
      1.8425,
      1.775,
      1.705,
      1.6375,
      1.57,
      1.5,
      1.4325,
      1.365,
      1.295,
      1.2275,
      1.16,
      1.0925,
      1.0225,
      0.955,
      0.8875,
      0.8175,
      0.75,
      0.6825,
      0.615,
      0.545,
      0.4775,
      0.41,
      0.34,
      0.2725,
      0.205,
      0.1375,
      0.0675,
      0
    ],
    "SoftwareVersions": "syngo_MR_D13",
    "SpacingBetweenSlices": 3.3,
    "StationName": "FBMTMR1",
    "TaskName": "read",
    "TotalReadoutTime": 0.0409508,
    "TxRefAmp": 354.576,
    "dataset": "ds003126",
    "dcmmeta_affine": [
      [
        -2.9788177013397217,
        -0.07280069589614868,
        -0.3831802010536194,
        93.52519226074219
      ],
      [
        -0.036864761263132095,
        2.9838826656341553,
        -0.33919432759284973,
        -102.00093078613281
      ],
      [
        -0.35395708680152893,
        0.3019006848335266,
        3.2600796222686768,
        -26.451053619384766
      ],
      [
        0.0,
        0.0,
        0.0,
        1.0
      ]
    ],
    "dcmmeta_reorient_transform": [
      [
        0.0,
        -1.0,
        0.0,
        63.0
      ],
      [
        1.0,
        0.0,
        0.0,
        0.0
      ],
      [
        0.0,
        0.0,
        1.0,
        0.0
      ],
      [
        0.0,
        0.0,
        0.0,
        1.0
      ]
    ],
    "dcmmeta_shape": [
      64,
      64,
      34,
      126
    ],
    "dcmmeta_slice_dim": 2,
    "dcmmeta_version": 0.6,
    "global": {
      "const": {
        "AcquisitionMatrix": [
          64,
          0,
          0,
          64
        ],
        "AngioFlag": "N",
        "BitsAllocated": 16,
        "BitsStored": 12,
        "BodyPartExamined": "HEAD",
        "Columns": 384,
        "EchoNumbers": 1,
        "EchoTime": 33.0,
        "EchoTrainLength": 64,
        "FlipAngle": 90.0,
        "HighBit": 11,
        "ImageOrientationPatient": [
          0.9929392604538,
          0.01228825347968,
          -0.117985693522,
          -0.0242668988528,
          0.99462757015572,
          -0.1006335645111
        ],
        "ImagePositionPatient": [
          -553.90148542135,
          -569.30327282921,
          97.50593423472
        ],
        "ImageType": [
          "ORIGINAL",
          "PRIMARY",
          "M",
          "ND",
          "NORM",
          "MOSAIC"
        ],
        "ImagedNucleus": "1H",
        "ImagingFrequency": 123.214357,
        "InPlanePhaseEncodingDirection": "COL",
        "MRAcquisitionType": "2D",
        "MagneticFieldStrength": 3.0,
        "Manufacturer": "SIEMENS",
        "ManufacturerModelName": "Skyra",
        "Modality": "MR",
        "NumberOfAverages": 1.0,
        "NumberOfPhaseEncodingSteps": 64,
        "PercentPhaseFieldOfView": 100.0,
        "PercentSampling": 100.0,
        "PerformedProcedureStepStartTime": "133748.983000",
        "PhotometricInterpretation": "MONOCHROME2",
        "PixelBandwidth": 1700.0,
        "PixelRepresentation": 0,
        "PixelSpacing": [
          3.0,
          3.0
        ],
        "ProtocolName": "fMRI_2",
        "RepetitionTime": 2340.0,
        "Rows": 384,
        "SAR": 0.17289369384744,
        "SamplesPerPixel": 1,
        "ScanOptions": "FS",
        "ScanningSequence": "EP",
        "SequenceName": "*epfid2d1_64",
        "SequenceVariant": "SK",
        "SeriesDescription": "fMRI_2",
        "SeriesNumber": 5,
        "SeriesTime": "140533.298000",
        "SliceLocation": -26.506487268207,
        "SliceThickness": 3.0,
        "SmallestImagePixelValue": 0,
        "SoftwareVersions": "syngo MR D13",
        "SpacingBetweenSlices": 3.2999999316272,
        "SpecificCharacterSet": "ISO_IR 100",
        "StudyID": "1",
        "StudyTime": "133748.935000",
        "TransmitCoilName": "Body",
        "VariableFlipAngleFlag": "N",
        "WindowCenterWidthExplanation": "Algo1",
        "dBdt": 0.0
      },
      "slices": {}
    },
    "modality": "bold",
    "run_id": 2,
    "session_id": "2",
    "subject_id": "047EPKL013033",
    "task_id": "read",
    "time": {
      "samples": {
        "AcquisitionNumber": [
          1,
          2,
          3,
          4,
          5,
          6,
          7,
          8,
          9,
          10,
          11,
          12,
          13,
          14,
          15,
          16,
          17,
          18,
          19,
          20,
          21,
          22,
          23,
          24,
          25,
          26,
          27,
          28,
          29,
          30,
          31,
          32,
          33,
          34,
          35,
          36,
          37,
          38,
          39,
          40,
          41,
          42,
          43,
          44,
          45,
          46,
          47,
          48,
          49,
          50,
          51,
          52,
          53,
          54,
          55,
          56,
          57,
          58,
          59,
          60,
          61,
          62,
          63,
          64,
          65,
          66,
          67,
          68,
          69,
          70,
          71,
          72,
          73,
          74,
          75,
          76,
          77,
          78,
          79,
          80,
          81,
          82,
          83,
          84,
          85,
          86,
          87,
          88,
          89,
          90,
          91,
          92,
          93,
          94,
          95,
          96,
          97,
          98,
          99,
          100,
          101,
          102,
          103,
          104,
          105,
          106,
          107,
          108,
          109,
          110,
          111,
          112,
          113,
          114,
          115,
          116,
          117,
          118,
          119,
          120,
          121,
          122,
          123,
          124,
          125,
          126
        ],
        "AcquisitionTime": [
          "140432.737500",
          "140435.077500",
          "140437.417500",
          "140439.757500",
          "140442.097500",
          "140444.437500",
          "140446.777500",
          "140449.117500",
          "140451.457500",
          "140453.797500",
          "140456.137500",
          "140458.477500",
          "140500.817500",
          "140503.157500",
          "140505.497500",
          "140507.837500",
          "140510.177500",
          "140512.517500",
          "140514.857500",
          "140517.197500",
          "140519.537500",
          "140521.877500",
          "140524.217500",
          "140526.557500",
          "140528.897500",
          "140531.237500",
          "140533.577500",
          "140535.917500",
          "140538.257500",
          "140540.597500",
          "140542.937500",
          "140545.277500",
          "140547.617500",
          "140549.957500",
          "140552.297500",
          "140554.637500",
          "140556.977500",
          "140559.317500",
          "140601.657500",
          "140603.997500",
          "140606.337500",
          "140608.677500",
          "140611.017500",
          "140613.357500",
          "140615.697500",
          "140618.037500",
          "140620.377500",
          "140622.717500",
          "140625.057500",
          "140627.397500",
          "140629.737500",
          "140632.077500",
          "140634.417500",
          "140636.757500",
          "140639.097500",
          "140641.437500",
          "140643.777500",
          "140646.117500",
          "140648.457500",
          "140650.797500",
          "140653.137500",
          "140655.477500",
          "140657.817500",
          "140700.157500",
          "140702.497500",
          "140704.837500",
          "140707.177500",
          "140709.517500",
          "140711.857500",
          "140714.197500",
          "140716.537500",
          "140718.877500",
          "140721.217500",
          "140723.557500",
          "140725.897500",
          "140728.237500",
          "140730.577500",
          "140732.917500",
          "140735.257500",
          "140737.597500",
          "140739.937500",
          "140742.277500",
          "140744.617500",
          "140746.957500",
          "140749.297500",
          "140751.637500",
          "140753.977500",
          "140756.317500",
          "140758.657500",
          "140800.997500",
          "140803.337500",
          "140805.677500",
          "140808.017500",
          "140810.357500",
          "140812.697500",
          "140815.037500",
          "140817.377500",
          "140819.717500",
          "140822.057500",
          "140824.397500",
          "140826.737500",
          "140829.077500",
          "140831.417500",
          "140833.757500",
          "140836.097500",
          "140838.437500",
          "140840.777500",
          "140843.117500",
          "140845.457500",
          "140847.797500",
          "140850.137500",
          "140852.477500",
          "140854.817500",
          "140857.157500",
          "140859.497500",
          "140901.837500",
          "140904.177500",
          "140906.517500",
          "140908.857500",
          "140911.197500",
          "140913.537500",
          "140915.877500",
          "140918.217500",
          "140920.557500",
          "140922.897500",
          "140925.237500"
        ],
        "ContentTime": [
          "140533.302000",
          "140533.306000",
          "140533.308000",
          "140533.311000",
          "140533.314000",
          "140533.316000",
          "140533.319000",
          "140533.321000",
          "140533.324000",
          "140533.327000",
          "140533.329000",
          "140533.332000",
          "140533.334000",
          "140533.337000",
          "140533.340000",
          "140533.342000",
          "140533.345000",
          "140533.348000",
          "140533.351000",
          "140533.354000",
          "140533.357000",
          "140533.359000",
          "140533.362000",
          "140533.365000",
          "140533.368000",
          "140533.371000",
          "140633.295000",
          "140633.299000",
          "140633.302000",
          "140633.304000",
          "140633.307000",
          "140633.310000",
          "140633.313000",
          "140633.315000",
          "140633.318000",
          "140633.321000",
          "140633.324000",
          "140633.327000",
          "140633.330000",
          "140633.333000",
          "140633.336000",
          "140633.338000",
          "140633.341000",
          "140633.344000",
          "140633.346000",
          "140633.349000",
          "140633.352000",
          "140633.355000",
          "140633.357000",
          "140633.360000",
          "140633.364000",
          "140633.367000",
          "140733.295000",
          "140733.298000",
          "140733.301000",
          "140733.304000",
          "140733.306000",
          "140733.309000",
          "140733.312000",
          "140733.315000",
          "140733.317000",
          "140733.320000",
          "140733.323000",
          "140733.325000",
          "140733.328000",
          "140733.331000",
          "140733.338000",
          "140733.341000",
          "140733.344000",
          "140733.347000",
          "140733.349000",
          "140733.352000",
          "140733.355000",
          "140733.358000",
          "140733.361000",
          "140733.363000",
          "140733.366000",
          "140733.369000",
          "140753.297000",
          "140753.301000",
          "140753.303000",
          "140753.306000",
          "140753.309000",
          "140753.312000",
          "140753.315000",
          "140753.318000",
          "140853.294000",
          "140853.297000",
          "140853.300000",
          "140853.303000",
          "140853.306000",
          "140853.308000",
          "140853.311000",
          "140853.314000",
          "140853.317000",
          "140853.320000",
          "140853.323000",
          "140853.326000",
          "140853.329000",
          "140853.332000",
          "140853.335000",
          "140853.338000",
          "140853.341000",
          "140853.345000",
          "140853.348000",
          "140853.351000",
          "140853.354000",
          "140853.357000",
          "140853.360000",
          "140853.363000",
          "140853.366000",
          "140853.369000",
          "140926.290000",
          "140926.294000",
          "140926.297000",
          "140926.299000",
          "140926.302000",
          "140926.305000",
          "140926.308000",
          "140926.311000",
          "140926.315000",
          "140926.319000",
          "140926.322000",
          "140926.325000",
          "140926.329000",
          "140926.334000"
        ],
        "InstanceCreationTime": [
          "140533.302000",
          "140533.306000",
          "140533.308000",
          "140533.311000",
          "140533.314000",
          "140533.316000",
          "140533.319000",
          "140533.321000",
          "140533.324000",
          "140533.327000",
          "140533.329000",
          "140533.332000",
          "140533.334000",
          "140533.337000",
          "140533.340000",
          "140533.342000",
          "140533.345000",
          "140533.348000",
          "140533.351000",
          "140533.354000",
          "140533.357000",
          "140533.359000",
          "140533.362000",
          "140533.365000",
          "140533.368000",
          "140533.371000",
          "140633.295000",
          "140633.299000",
          "140633.302000",
          "140633.304000",
          "140633.307000",
          "140633.310000",
          "140633.313000",
          "140633.315000",
          "140633.318000",
          "140633.321000",
          "140633.324000",
          "140633.327000",
          "140633.330000",
          "140633.333000",
          "140633.336000",
          "140633.338000",
          "140633.341000",
          "140633.344000",
          "140633.346000",
          "140633.349000",
          "140633.352000",
          "140633.355000",
          "140633.357000",
          "140633.360000",
          "140633.364000",
          "140633.367000",
          "140733.295000",
          "140733.298000",
          "140733.301000",
          "140733.304000",
          "140733.306000",
          "140733.309000",
          "140733.312000",
          "140733.315000",
          "140733.317000",
          "140733.320000",
          "140733.323000",
          "140733.325000",
          "140733.328000",
          "140733.331000",
          "140733.338000",
          "140733.341000",
          "140733.344000",
          "140733.347000",
          "140733.349000",
          "140733.352000",
          "140733.355000",
          "140733.358000",
          "140733.361000",
          "140733.363000",
          "140733.366000",
          "140733.369000",
          "140753.297000",
          "140753.301000",
          "140753.303000",
          "140753.306000",
          "140753.309000",
          "140753.312000",
          "140753.315000",
          "140753.318000",
          "140853.294000",
          "140853.297000",
          "140853.300000",
          "140853.303000",
          "140853.306000",
          "140853.308000",
          "140853.311000",
          "140853.314000",
          "140853.317000",
          "140853.320000",
          "140853.323000",
          "140853.326000",
          "140853.329000",
          "140853.332000",
          "140853.335000",
          "140853.338000",
          "140853.341000",
          "140853.345000",
          "140853.348000",
          "140853.351000",
          "140853.354000",
          "140853.357000",
          "140853.360000",
          "140853.363000",
          "140853.366000",
          "140853.369000",
          "140926.290000",
          "140926.294000",
          "140926.297000",
          "140926.299000",
          "140926.302000",
          "140926.305000",
          "140926.308000",
          "140926.311000",
          "140926.315000",
          "140926.319000",
          "140926.322000",
          "140926.325000",
          "140926.329000",
          "140926.334000"
        ],
        "InstanceNumber": [
          1,
          2,
          3,
          4,
          5,
          6,
          7,
          8,
          9,
          10,
          11,
          12,
          13,
          14,
          15,
          16,
          17,
          18,
          19,
          20,
          21,
          22,
          23,
          24,
          25,
          26,
          27,
          28,
          29,
          30,
          31,
          32,
          33,
          34,
          35,
          36,
          37,
          38,
          39,
          40,
          41,
          42,
          43,
          44,
          45,
          46,
          47,
          48,
          49,
          50,
          51,
          52,
          53,
          54,
          55,
          56,
          57,
          58,
          59,
          60,
          61,
          62,
          63,
          64,
          65,
          66,
          67,
          68,
          69,
          70,
          71,
          72,
          73,
          74,
          75,
          76,
          77,
          78,
          79,
          80,
          81,
          82,
          83,
          84,
          85,
          86,
          87,
          88,
          89,
          90,
          91,
          92,
          93,
          94,
          95,
          96,
          97,
          98,
          99,
          100,
          101,
          102,
          103,
          104,
          105,
          106,
          107,
          108,
          109,
          110,
          111,
          112,
          113,
          114,
          115,
          116,
          117,
          118,
          119,
          120,
          121,
          122,
          123,
          124,
          125,
          126
        ],
        "LargestImagePixelValue": [
          2086,
          2312,
          2526,
          1685,
          2439,
          3339,
          2291,
          2055,
          1757,
          2573,
          2470,
          2336,
          1874,
          3309,
          2130,
          1670,
          1777,
          2735,
          2359,
          1981,
          2481,
          2067,
          1842,
          1780,
          1887,
          2229,
          3033,
          2145,
          1922,
          1908,
          1887,
          1763,
          2211,
          2671,
          2575,
          2077,
          2017,
          1997,
          1960,
          2160,
          2252,
          2067,
          2111,
          3038,
          2006,
          2586,
          2348,
          2026,
          2177,
          2085,
          2400,
          2575,
          2446,
          2047,
          1733,
          1774,
          2248,
          1900,
          1956,
          3014,
          2522,
          2490,
          2086,
          1736,
          2042,
          1950,
          2468,
          2817,
          3219,
          1708,
          1795,
          1964,
          2420,
          2264,
          1793,
          2406,
          1979,
          2837,
          1663,
          1653,
          2462,
          2716,
          2218,
          1878,
          2658,
          2289,
          2025,
          1766,
          1676,
          2624,
          2353,
          2326,
          2346,
          2504,
          2084,
          1759,
          1949,
          2882,
          1873,
          1800,
          1767,
          2063,
          2809,
          2913,
          1719,
          2945,
          2365,
          2213,
          1784,
          1767,
          2504,
          2436,
          2239,
          1746,
          1893,
          2302,
          2573,
          2521,
          2233,
          1891,
          2803,
          1646,
          1933,
          2083,
          2477,
          1819
        ],
        "WindowCenter": [
          746.0,
          746.0,
          744.0,
          746.0,
          748.0,
          748.0,
          745.0,
          746.0,
          746.0,
          748.0,
          747.0,
          744.0,
          743.0,
          745.0,
          743.0,
          744.0,
          745.0,
          747.0,
          746.0,
          745.0,
          746.0,
          747.0,
          745.0,
          744.0,
          745.0,
          748.0,
          748.0,
          746.0,
          745.0,
          745.0,
          745.0,
          746.0,
          747.0,
          746.0,
          746.0,
          746.0,
          745.0,
          747.0,
          746.0,
          747.0,
          745.0,
          746.0,
          747.0,
          749.0,
          746.0,
          749.0,
          748.0,
          747.0,
          746.0,
          747.0,
          748.0,
          749.0,
          745.0,
          746.0,
          745.0,
          746.0,
          748.0,
          747.0,
          748.0,
          749.0,
          748.0,
          748.0,
          746.0,
          746.0,
          747.0,
          748.0,
          748.0,
          748.0,
          748.0,
          746.0,
          747.0,
          747.0,
          747.0,
          748.0,
          748.0,
          750.0,
          748.0,
          750.0,
          746.0,
          749.0,
          750.0,
          751.0,
          749.0,
          750.0,
          752.0,
          750.0,
          748.0,
          749.0,
          749.0,
          752.0,
          750.0,
          749.0,
          749.0,
          750.0,
          748.0,
          748.0,
          748.0,
          749.0,
          747.0,
          748.0,
          749.0,
          750.0,
          750.0,
          751.0,
          749.0,
          752.0,
          749.0,
          749.0,
          748.0,
          751.0,
          751.0,
          750.0,
          749.0,
          748.0,
          749.0,
          751.0,
          750.0,
          751.0,
          750.0,
          752.0,
          751.0,
          748.0,
          749.0,
          752.0,
          751.0,
          751.0
        ],
        "WindowWidth": [
          1579.0,
          1578.0,
          1573.0,
          1577.0,
          1584.0,
          1584.0,
          1577.0,
          1578.0,
          1580.0,
          1585.0,
          1582.0,
          1574.0,
          1572.0,
          1579.0,
          1573.0,
          1574.0,
          1577.0,
          1583.0,
          1580.0,
          1576.0,
          1580.0,
          1582.0,
          1577.0,
          1574.0,
          1575.0,
          1583.0,
          1586.0,
          1580.0,
          1579.0,
          1577.0,
          1577.0,
          1580.0,
          1583.0,
          1581.0,
          1580.0,
          1579.0,
          1576.0,
          1584.0,
          1579.0,
          1582.0,
          1578.0,
          1578.0,
          1580.0,
          1587.0,
          1579.0,
          1586.0,
          1585.0,
          1582.0,
          1581.0,
          1582.0,
          1585.0,
          1585.0,
          1577.0,
          1581.0,
          1577.0,
          1581.0,
          1587.0,
          1581.0,
          1584.0,
          1590.0,
          1585.0,
          1584.0,
          1579.0,
          1579.0,
          1582.0,
          1584.0,
          1585.0,
          1585.0,
          1584.0,
          1578.0,
          1582.0,
          1583.0,
          1584.0,
          1587.0,
          1584.0,
          1590.0,
          1584.0,
          1589.0,
          1580.0,
          1586.0,
          1589.0,
          1591.0,
          1586.0,
          1589.0,
          1594.0,
          1589.0,
          1584.0,
          1586.0,
          1587.0,
          1595.0,
          1589.0,
          1589.0,
          1587.0,
          1588.0,
          1585.0,
          1584.0,
          1585.0,
          1589.0,
          1582.0,
          1583.0,
          1586.0,
          1590.0,
          1591.0,
          1595.0,
          1587.0,
          1594.0,
          1587.0,
          1587.0,
          1585.0,
          1591.0,
          1592.0,
          1590.0,
          1588.0,
          1586.0,
          1588.0,
          1591.0,
          1589.0,
          1591.0,
          1590.0,
          1595.0,
          1595.0,
          1584.0,
          1588.0,
          1593.0,
          1592.0,
          1591.0
        ]
      },
      "slices": {}
    }
  },
  "dummy_trs": 0,
  "dvars_nstd": 38.535800887760004,
  "dvars_std": 1.3017693920799993,
  "dvars_vstd": 1.0557552903999998,
  "efc": 0.5523220549469329,
  "fber": 1443.5904541015625,
  "fd_mean": 0.5631939824143253,
  "fd_num": 111,
  "fd_perc": 88.0952380952381,
  "fwhm_avg": 1.621347522044965,
  "fwhm_x": 1.5379465444416567,
  "fwhm_y": 1.7915265242889304,
  "fwhm_z": 1.5345694974043083,
  "gcor": 0.0492226,
  "gsr_x": -0.005361145827919245,
  "gsr_y": 0.028990359976887703,
  "provenance": {
    "md5sum": "c27c71c208c0d74b2dcf9a8392d8ab84",
    "settings": {
      "fd_thres": 0.2,
      "testing": false
    },
    "software": "mriqc",
    "version": "22.0.1",
    "webapi_port": null,
    "webapi_url": "https://mriqc.nimh.nih.gov/api/v1"
  },
  "size_t": 126,
  "size_x": 64,
  "size_y": 64,
  "size_z": 34,
  "snr": 7.005420650506741,
  "spacing_tr": 2.3399999141693115,
  "spacing_x": 3.000000238418579,
  "spacing_y": 3.000000238418579,
  "spacing_z": 3.3000004291534424,
  "summary_bg_k": 81.62930780687759,
  "summary_bg_mad": 7.5306774864031665,
  "summary_bg_mean": 30.928089141845703,
  "summary_bg_median": 21.976192474365234,
  "summary_bg_n": 75989.0,
  "summary_bg_p05": 13.00793743133545,
  "summary_bg_p95": 75.6555603027343,
  "summary_bg_stdv": 34.62946701049805,
  "summary_fg_k": 2.227817461367729,
  "summary_fg_mad": 120.78493507115569,
  "summary_fg_mean": 853.5925903320312,
  "summary_fg_median": 849.9127197265625,
  "summary_fg_n": 31765.0,
  "summary_fg_p05": 677.433349609375,
  "summary_fg_p95": 1039.6715087890625,
  "summary_fg_stdv": 121.32024383544922,
  "tsnr": 52.20263579511084
}