{
  "aor": 0.010577751937984495,
  "aqi": 0.01761748403100775,
  "bids_meta": {
    "AcquisitionMatrixPE": 64,
    "AcquisitionNumber": 1,
    "AcquisitionTime": "12:11:37.202500",
    "BandwidthPerPixelPhaseEncode": 24.038,
    "BaseResolution": 64,
    "BodyPartExamined": "HEAD",
    "ConsistencyInfo": "N4_VD13A_LATEST_20120616",
    "ConversionSoftware": "dcm2niix",
    "ConversionSoftwareVersion": "v1.0.20181125  GCC6.3.0",
    "DerivedVendorReportedEchoSpacing": 0.000650012,
    "DeviceSerialNumber": "45250",
    "DwellTime": 4.6e-06,
    "EchoTime": 0.033,
    "EchoTrainLength": 64,
    "EffectiveEchoSpacing": 0.000650012,
    "FlipAngle": 90,
    "ImageOrientationPatientDICOM": [
      0.999358,
      0.00461143,
      -0.0355225,
      -0.00872132,
      0.993161,
      -0.116428
    ],
    "ImageType": [
      "ORIGINAL",
      "PRIMARY",
      "M",
      "ND",
      "NORM",
      "MOSAIC"
    ],
    "ImagingFrequency": 123.215,
    "InPlanePhaseEncodingDirectionDICOM": "COL",
    "InstitutionAddress": "Kopernikusstr._26_Graz_Graz_AT_8010",
    "InstitutionName": "KFU",
    "InstitutionalDepartmentName": "Department",
    "MRAcquisitionType": "2D",
    "MagneticFieldStrength": 3,
    "Manufacturer": "Siemens",
    "ManufacturersModelName": "Skyra",
    "Modality": "MR",
    "PartialFourier": 1,
    "PatientPosition": "HFS",
    "PercentPhaseFOV": 100,
    "PhaseEncodingDirection": "j-",
    "PhaseEncodingSteps": 64,
    "PhaseResolution": 1,
    "PixelBandwidth": 1700,
    "ProcedureStepDescription": "KFU_Entw-Psy",
    "ProtocolName": "fMRI_2",
    "PulseSequenceDetails": "%SiemensSeq%_ep2d_pace",
    "ReceiveCoilActiveElements": "HE1-4",
    "ReceiveCoilName": "HeadNeck_20",
    "ReconMatrixPE": 64,
    "RepetitionTime": 2.34,
    "SAR": 0.129837,
    "ScanOptions": "FS",
    "ScanningSequence": "EP",
    "SequenceName": "_epfid2d1_64",
    "SequenceVariant": "SK",
    "SeriesDescription": "fMRI_2",
    "SeriesNumber": 5,
    "ShimSetting": [
      -1610,
      -3599,
      -4491,
      138,
      424,
      47,
      -56,
      -310
    ],
    "SliceThickness": 3,
    "SliceTiming": [
      2.25,
      2.1825,
      2.115,
      2.0475,
      1.9775,
      1.91,
      1.8425,
      1.7725,
      1.705,
      1.6375,
      1.57,
      1.5,
      1.4325,
      1.365,
      1.295,
      1.2275,
      1.16,
      1.0925,
      1.0225,
      0.955,
      0.8875,
      0.8175,
      0.75,
      0.6825,
      0.6125,
      0.545,
      0.4775,
      0.41,
      0.34,
      0.2725,
      0.205,
      0.135,
      0.0675,
      0
    ],
    "SoftwareVersions": "syngo_MR_D13",
    "SpacingBetweenSlices": 3.3,
    "StationName": "FBMTMR1",
    "TaskName": "read",
    "TotalReadoutTime": 0.0409508,
    "TxRefAmp": 352.914,
    "dataset": "ds003126",
    "dcmmeta_affine": [
      [
        -2.998074769973755,
        -0.026163961738348007,
        -0.1146509125828743,
        93.80231475830078
      ],
      [
        -0.013834301382303238,
        2.979482412338257,
        -0.3849889934062958,
        -111.01233673095703
      ],
      [
        -0.10656764358282089,
        0.34928473830223083,
        3.2754600048065186,
        -40.326473236083984
      ],
      [
        0.0,
        0.0,
        0.0,
        1.0
      ]
    ],
    "dcmmeta_reorient_transform": [
      [
        0.0,
        -1.0,
        0.0,
        63.0
      ],
      [
        1.0,
        0.0,
        0.0,
        0.0
      ],
      [
        0.0,
        0.0,
        1.0,
        0.0
      ],
      [
        0.0,
        0.0,
        0.0,
        1.0
      ]
    ],
    "dcmmeta_shape": [
      64,
      64,
      34,
      129
    ],
    "dcmmeta_slice_dim": 2,
    "dcmmeta_version": 0.6,
    "global": {
      "const": {
        "AcquisitionMatrix": [
          64,
          0,
          0,
          64
        ],
        "AngioFlag": "N",
        "BitsAllocated": 16,
        "BitsStored": 12,
        "BodyPartExamined": "HEAD",
        "Columns": 384,
        "EchoNumbers": 1,
        "EchoTime": 33.0,
        "EchoTrainLength": 64,
        "FlipAngle": 90.0,
        "HighBit": 11,
        "ImageOrientationPatient": [
          0.99935823570256,
          0.00461143388,
          -0.0355225479245,
          -0.0087213203181,
          0.99316081411143,
          -0.1164282435041
        ],
        "ImagePositionPatient": [
          -567.65970206377,
          -555.6257332238,
          54.614846200966
        ],
        "ImageType": [
          "ORIGINAL",
          "PRIMARY",
          "M",
          "ND",
          "NORM",
          "MOSAIC"
        ],
        "ImagedNucleus": "1H",
        "ImagingFrequency": 123.21454,
        "InPlanePhaseEncodingDirection": "COL",
        "MRAcquisitionType": "2D",
        "MagneticFieldStrength": 3.0,
        "Manufacturer": "SIEMENS",
        "ManufacturerModelName": "Skyra",
        "Modality": "MR",
        "NumberOfAverages": 1.0,
        "NumberOfPhaseEncodingSteps": 64,
        "PercentPhaseFieldOfView": 100.0,
        "PercentSampling": 100.0,
        "PerformedProcedureStepStartTime": "120319.113000",
        "PhotometricInterpretation": "MONOCHROME2",
        "PixelBandwidth": 1700.0,
        "PixelRepresentation": 0,
        "PixelSpacing": [
          3.0,
          3.0
        ],
        "ProtocolName": "fMRI_2",
        "RepetitionTime": 2340.0,
        "Rows": 384,
        "SAR": 0.1298371142761,
        "SamplesPerPixel": 1,
        "ScanOptions": "FS",
        "ScanningSequence": "EP",
        "SequenceName": "*epfid2d1_64",
        "SequenceVariant": "SK",
        "SeriesDescription": "fMRI_2",
        "SeriesNumber": 5,
        "SeriesTime": "121233.754000",
        "SliceLocation": -30.334467007732,
        "SliceThickness": 3.0,
        "SmallestImagePixelValue": 0,
        "SoftwareVersions": "syngo MR D13",
        "SpacingBetweenSlices": 3.3000000290488,
        "SpecificCharacterSet": "ISO_IR 100",
        "StudyID": "1",
        "StudyTime": "120319.053000",
        "TransmitCoilName": "Body",
        "VariableFlipAngleFlag": "N",
        "WindowCenterWidthExplanation": "Algo1",
        "dBdt": 0.0
      },
      "slices": {}
    },
    "modality": "bold",
    "run_id": 2,
    "session_id": "2",
    "subject_id": "047EPKL013003",
    "task_id": "read",
    "time": {
      "samples": {
        "AcquisitionNumber": [
          1,
          2,
          3,
          4,
          5,
          6,
          7,
          8,
          9,
          10,
          11,
          12,
          13,
          14,
          15,
          16,
          17,
          18,
          19,
          20,
          21,
          22,
          23,
          24,
          25,
          26,
          27,
          28,
          29,
          30,
          31,
          32,
          33,
          34,
          35,
          36,
          37,
          38,
          39,
          40,
          41,
          42,
          43,
          44,
          45,
          46,
          47,
          48,
          49,
          50,
          51,
          52,
          53,
          54,
          55,
          56,
          57,
          58,
          59,
          60,
          61,
          62,
          63,
          64,
          65,
          66,
          67,
          68,
          69,
          70,
          71,
          72,
          73,
          74,
          75,
          76,
          77,
          78,
          79,
          80,
          81,
          82,
          83,
          84,
          85,
          86,
          87,
          88,
          89,
          90,
          91,
          92,
          93,
          94,
          95,
          96,
          97,
          98,
          99,
          100,
          101,
          102,
          103,
          104,
          105,
          106,
          107,
          108,
          109,
          110,
          111,
          112,
          113,
          114,
          115,
          116,
          117,
          118,
          119,
          120,
          121,
          122,
          123,
          124,
          125,
          126,
          127,
          128,
          129
        ],
        "AcquisitionTime": [
          "121137.202500",
          "121139.542500",
          "121141.882500",
          "121144.222500",
          "121146.562500",
          "121148.902500",
          "121151.242500",
          "121153.582500",
          "121155.922500",
          "121158.262500",
          "121200.602500",
          "121202.942500",
          "121205.282500",
          "121207.622500",
          "121209.962500",
          "121212.302500",
          "121214.642500",
          "121216.982500",
          "121219.322500",
          "121221.662500",
          "121224.002500",
          "121226.342500",
          "121228.682500",
          "121231.022500",
          "121233.362500",
          "121235.702500",
          "121238.042500",
          "121240.382500",
          "121242.722500",
          "121245.062500",
          "121247.402500",
          "121249.742500",
          "121252.082500",
          "121254.422500",
          "121256.762500",
          "121259.102500",
          "121301.442500",
          "121303.782500",
          "121306.122500",
          "121308.462500",
          "121310.802500",
          "121313.142500",
          "121315.482500",
          "121317.822500",
          "121320.162500",
          "121322.502500",
          "121324.842500",
          "121327.182500",
          "121329.522500",
          "121331.862500",
          "121334.202500",
          "121336.542500",
          "121338.882500",
          "121341.222500",
          "121343.562500",
          "121345.902500",
          "121348.242500",
          "121350.582500",
          "121352.922500",
          "121355.262500",
          "121357.602500",
          "121359.942500",
          "121402.282500",
          "121404.622500",
          "121406.962500",
          "121409.302500",
          "121411.642500",
          "121413.982500",
          "121416.322500",
          "121418.662500",
          "121421.002500",
          "121423.342500",
          "121425.682500",
          "121428.022500",
          "121430.362500",
          "121432.702500",
          "121435.042500",
          "121437.382500",
          "121439.722500",
          "121442.062500",
          "121444.402500",
          "121446.742500",
          "121449.082500",
          "121451.422500",
          "121453.762500",
          "121456.102500",
          "121458.442500",
          "121500.782500",
          "121503.122500",
          "121505.462500",
          "121507.802500",
          "121510.142500",
          "121512.482500",
          "121514.822500",
          "121517.162500",
          "121519.502500",
          "121521.842500",
          "121524.182500",
          "121526.522500",
          "121528.862500",
          "121531.202500",
          "121533.542500",
          "121535.882500",
          "121538.222500",
          "121540.562500",
          "121542.902500",
          "121545.242500",
          "121547.582500",
          "121549.922500",
          "121552.262500",
          "121554.602500",
          "121556.942500",
          "121559.282500",
          "121601.622500",
          "121603.962500",
          "121606.302500",
          "121608.642500",
          "121610.982500",
          "121613.322500",
          "121615.662500",
          "121618.002500",
          "121620.342500",
          "121622.682500",
          "121625.022500",
          "121627.362500",
          "121629.702500",
          "121632.042500",
          "121634.382500",
          "121636.722500"
        ],
        "ContentTime": [
          "121233.759000",
          "121233.763000",
          "121233.766000",
          "121233.768000",
          "121233.771000",
          "121233.777000",
          "121233.780000",
          "121233.782000",
          "121233.785000",
          "121233.788000",
          "121233.791000",
          "121233.793000",
          "121233.796000",
          "121233.799000",
          "121233.802000",
          "121233.804000",
          "121233.807000",
          "121233.810000",
          "121233.812000",
          "121233.815000",
          "121233.818000",
          "121233.821000",
          "121233.823000",
          "121233.826000",
          "121333.753000",
          "121333.756000",
          "121333.759000",
          "121333.768000",
          "121333.771000",
          "121333.773000",
          "121333.776000",
          "121333.779000",
          "121333.782000",
          "121333.785000",
          "121333.787000",
          "121333.790000",
          "121333.793000",
          "121333.796000",
          "121333.799000",
          "121333.802000",
          "121333.804000",
          "121333.807000",
          "121333.810000",
          "121333.812000",
          "121333.815000",
          "121333.818000",
          "121333.821000",
          "121333.823000",
          "121333.826000",
          "121333.829000",
          "121433.753000",
          "121433.757000",
          "121433.761000",
          "121433.770000",
          "121433.773000",
          "121433.776000",
          "121433.781000",
          "121433.784000",
          "121433.786000",
          "121433.789000",
          "121433.792000",
          "121433.795000",
          "121433.797000",
          "121433.800000",
          "121433.803000",
          "121433.806000",
          "121433.808000",
          "121433.824000",
          "121433.827000",
          "121433.831000",
          "121433.833000",
          "121433.836000",
          "121433.839000",
          "121433.844000",
          "121433.846000",
          "121533.753000",
          "121533.762000",
          "121533.765000",
          "121533.768000",
          "121533.770000",
          "121533.773000",
          "121533.776000",
          "121533.779000",
          "121533.781000",
          "121533.784000",
          "121533.787000",
          "121533.789000",
          "121533.792000",
          "121533.795000",
          "121533.797000",
          "121533.800000",
          "121533.803000",
          "121533.806000",
          "121533.808000",
          "121533.811000",
          "121533.813000",
          "121533.816000",
          "121533.819000",
          "121533.821000",
          "121533.824000",
          "121533.827000",
          "121633.753000",
          "121633.763000",
          "121633.766000",
          "121633.769000",
          "121633.772000",
          "121633.775000",
          "121633.778000",
          "121633.781000",
          "121633.783000",
          "121633.786000",
          "121633.789000",
          "121633.792000",
          "121633.794000",
          "121633.798000",
          "121633.800000",
          "121633.803000",
          "121633.806000",
          "121633.808000",
          "121633.811000",
          "121633.814000",
          "121633.816000",
          "121633.819000",
          "121633.822000",
          "121633.825000",
          "121633.827000",
          "121633.830000",
          "121639.930000",
          "121639.934000"
        ],
        "InstanceCreationTime": [
          "121233.759000",
          "121233.763000",
          "121233.766000",
          "121233.768000",
          "121233.771000",
          "121233.777000",
          "121233.780000",
          "121233.782000",
          "121233.785000",
          "121233.788000",
          "121233.791000",
          "121233.793000",
          "121233.796000",
          "121233.799000",
          "121233.802000",
          "121233.804000",
          "121233.807000",
          "121233.810000",
          "121233.812000",
          "121233.815000",
          "121233.818000",
          "121233.821000",
          "121233.823000",
          "121233.826000",
          "121333.753000",
          "121333.756000",
          "121333.759000",
          "121333.768000",
          "121333.771000",
          "121333.773000",
          "121333.776000",
          "121333.779000",
          "121333.782000",
          "121333.785000",
          "121333.787000",
          "121333.790000",
          "121333.793000",
          "121333.796000",
          "121333.799000",
          "121333.802000",
          "121333.804000",
          "121333.807000",
          "121333.810000",
          "121333.812000",
          "121333.815000",
          "121333.818000",
          "121333.821000",
          "121333.823000",
          "121333.826000",
          "121333.829000",
          "121433.753000",
          "121433.757000",
          "121433.761000",
          "121433.770000",
          "121433.773000",
          "121433.776000",
          "121433.781000",
          "121433.784000",
          "121433.786000",
          "121433.789000",
          "121433.792000",
          "121433.795000",
          "121433.797000",
          "121433.800000",
          "121433.803000",
          "121433.806000",
          "121433.808000",
          "121433.824000",
          "121433.827000",
          "121433.831000",
          "121433.833000",
          "121433.836000",
          "121433.839000",
          "121433.844000",
          "121433.846000",
          "121533.753000",
          "121533.762000",
          "121533.765000",
          "121533.768000",
          "121533.770000",
          "121533.773000",
          "121533.776000",
          "121533.779000",
          "121533.781000",
          "121533.784000",
          "121533.787000",
          "121533.789000",
          "121533.792000",
          "121533.795000",
          "121533.797000",
          "121533.800000",
          "121533.803000",
          "121533.806000",
          "121533.808000",
          "121533.811000",
          "121533.813000",
          "121533.816000",
          "121533.819000",
          "121533.821000",
          "121533.824000",
          "121533.827000",
          "121633.753000",
          "121633.763000",
          "121633.766000",
          "121633.769000",
          "121633.772000",
          "121633.775000",
          "121633.778000",
          "121633.781000",
          "121633.783000",
          "121633.786000",
          "121633.789000",
          "121633.792000",
          "121633.794000",
          "121633.798000",
          "121633.800000",
          "121633.803000",
          "121633.806000",
          "121633.808000",
          "121633.811000",
          "121633.814000",
          "121633.816000",
          "121633.819000",
          "121633.822000",
          "121633.825000",
          "121633.827000",
          "121633.830000",
          "121639.930000",
          "121639.934000"
        ],
        "InstanceNumber": [
          1,
          2,
          3,
          4,
          5,
          6,
          7,
          8,
          9,
          10,
          11,
          12,
          13,
          14,
          15,
          16,
          17,
          18,
          19,
          20,
          21,
          22,
          23,
          24,
          25,
          26,
          27,
          28,
          29,
          30,
          31,
          32,
          33,
          34,
          35,
          36,
          37,
          38,
          39,
          40,
          41,
          42,
          43,
          44,
          45,
          46,
          47,
          48,
          49,
          50,
          51,
          52,
          53,
          54,
          55,
          56,
          57,
          58,
          59,
          60,
          61,
          62,
          63,
          64,
          65,
          66,
          67,
          68,
          69,
          70,
          71,
          72,
          73,
          74,
          75,
          76,
          77,
          78,
          79,
          80,
          81,
          82,
          83,
          84,
          85,
          86,
          87,
          88,
          89,
          90,
          91,
          92,
          93,
          94,
          95,
          96,
          97,
          98,
          99,
          100,
          101,
          102,
          103,
          104,
          105,
          106,
          107,
          108,
          109,
          110,
          111,
          112,
          113,
          114,
          115,
          116,
          117,
          118,
          119,
          120,
          121,
          122,
          123,
          124,
          125,
          126,
          127,
          128,
          129
        ],
        "LargestImagePixelValue": [
          1996,
          1889,
          1833,
          1989,
          1730,
          1594,
          1793,
          1966,
          1949,
          1857,
          1723,
          1638,
          1929,
          1908,
          1645,
          1672,
          1635,
          1811,
          1728,
          1642,
          1809,
          1636,
          1654,
          1537,
          1600,
          1833,
          1657,
          1869,
          1677,
          2019,
          1676,
          1689,
          1861,
          1690,
          1837,
          1693,
          1732,
          1884,
          1956,
          1664,
          1781,
          1585,
          1784,
          1679,
          1792,
          1746,
          1689,
          1752,
          1685,
          1808,
          1652,
          1817,
          1640,
          1759,
          1754,
          1650,
          2001,
          1630,
          1783,
          1844,
          1826,
          1755,
          1595,
          2179,
          1808,
          1689,
          1669,
          1740,
          1705,
          1656,
          1846,
          1742,
          1750,
          1946,
          1842,
          1690,
          1751,
          1636,
          1878,
          1968,
          1789,
          1778,
          1936,
          1701,
          1655,
          1688,
          1733,
          1760,
          1875,
          1769,
          1624,
          1983,
          1707,
          1581,
          1927,
          1679,
          1746,
          1980,
          1688,
          1581,
          1722,
          1800,
          1734,
          1836,
          1745,
          1699,
          1811,
          1683,
          1934,
          1678,
          1666,
          1696,
          1631,
          1580,
          1676,
          1658,
          1636,
          2060,
          1769,
          1869,
          1827,
          2011,
          1813,
          1838,
          1906,
          2004,
          1913,
          1669,
          1744
        ],
        "WindowCenter": [
          757.0,
          755.0,
          755.0,
          756.0,
          757.0,
          755.0,
          756.0,
          757.0,
          756.0,
          755.0,
          753.0,
          755.0,
          751.0,
          752.0,
          754.0,
          753.0,
          756.0,
          759.0,
          758.0,
          756.0,
          755.0,
          758.0,
          756.0,
          758.0,
          759.0,
          758.0,
          756.0,
          757.0,
          756.0,
          758.0,
          758.0,
          756.0,
          757.0,
          758.0,
          757.0,
          756.0,
          757.0,
          757.0,
          755.0,
          756.0,
          756.0,
          754.0,
          756.0,
          757.0,
          755.0,
          759.0,
          757.0,
          757.0,
          757.0,
          756.0,
          757.0,
          760.0,
          760.0,
          760.0,
          758.0,
          758.0,
          760.0,
          759.0,
          757.0,
          759.0,
          760.0,
          759.0,
          759.0,
          760.0,
          757.0,
          758.0,
          759.0,
          758.0,
          759.0,
          761.0,
          762.0,
          760.0,
          760.0,
          759.0,
          758.0,
          758.0,
          761.0,
          762.0,
          761.0,
          758.0,
          756.0,
          756.0,
          758.0,
          757.0,
          756.0,
          761.0,
          759.0,
          759.0,
          758.0,
          758.0,
          756.0,
          759.0,
          759.0,
          761.0,
          761.0,
          760.0,
          759.0,
          761.0,
          758.0,
          759.0,
          762.0,
          763.0,
          759.0,
          764.0,
          762.0,
          761.0,
          763.0,
          763.0,
          761.0,
          762.0,
          760.0,
          760.0,
          759.0,
          762.0,
          763.0,
          761.0,
          762.0,
          763.0,
          762.0,
          762.0,
          762.0,
          763.0,
          761.0,
          761.0,
          759.0,
          760.0,
          759.0,
          758.0,
          759.0
        ],
        "WindowWidth": [
          1562.0,
          1559.0,
          1559.0,
          1561.0,
          1563.0,
          1558.0,
          1559.0,
          1560.0,
          1559.0,
          1556.0,
          1552.0,
          1557.0,
          1549.0,
          1551.0,
          1555.0,
          1553.0,
          1560.0,
          1567.0,
          1564.0,
          1560.0,
          1555.0,
          1565.0,
          1560.0,
          1563.0,
          1568.0,
          1563.0,
          1560.0,
          1563.0,
          1558.0,
          1564.0,
          1564.0,
          1559.0,
          1561.0,
          1565.0,
          1561.0,
          1559.0,
          1562.0,
          1562.0,
          1558.0,
          1560.0,
          1560.0,
          1555.0,
          1559.0,
          1561.0,
          1557.0,
          1566.0,
          1561.0,
          1562.0,
          1562.0,
          1561.0,
          1562.0,
          1569.0,
          1569.0,
          1568.0,
          1563.0,
          1564.0,
          1569.0,
          1567.0,
          1562.0,
          1566.0,
          1569.0,
          1567.0,
          1566.0,
          1569.0,
          1562.0,
          1563.0,
          1567.0,
          1565.0,
          1567.0,
          1569.0,
          1572.0,
          1568.0,
          1569.0,
          1566.0,
          1564.0,
          1564.0,
          1570.0,
          1573.0,
          1570.0,
          1565.0,
          1558.0,
          1560.0,
          1565.0,
          1560.0,
          1559.0,
          1572.0,
          1566.0,
          1565.0,
          1565.0,
          1565.0,
          1561.0,
          1567.0,
          1565.0,
          1570.0,
          1571.0,
          1568.0,
          1566.0,
          1571.0,
          1565.0,
          1566.0,
          1572.0,
          1575.0,
          1566.0,
          1577.0,
          1574.0,
          1570.0,
          1575.0,
          1573.0,
          1570.0,
          1572.0,
          1567.0,
          1569.0,
          1567.0,
          1573.0,
          1576.0,
          1571.0,
          1574.0,
          1575.0,
          1572.0,
          1574.0,
          1573.0,
          1576.0,
          1571.0,
          1570.0,
          1565.0,
          1568.0,
          1565.0,
          1565.0,
          1566.0
        ]
      },
      "slices": {}
    }
  },
  "dummy_trs": 0,
  "dvars_nstd": 41.08987124257813,
  "dvars_std": 1.383920543359375,
  "dvars_vstd": 1.1140476162500002,
  "efc": 0.6070416758447288,
  "fber": 1255.853759765625,
  "fd_mean": 0.5639420339087589,
  "fd_num": 107,
  "fd_perc": 82.94573643410853,
  "fwhm_avg": 1.622651017434363,
  "fwhm_x": 1.5237966666666667,
  "fwhm_y": 1.82162,
  "fwhm_z": 1.522536385636422,
  "gcor": 0.0464635,
  "gsr_x": -0.009523607790470123,
  "gsr_y": 0.05176756903529167,
  "provenance": {
    "md5sum": "93b969b79ea467c52623dcf2b4f05854",
    "settings": {
      "fd_thres": 0.2,
      "testing": false
    },
    "software": "mriqc",
    "version": "22.0.1",
    "webapi_port": null,
    "webapi_url": "https://mriqc.nimh.nih.gov/api/v1"
  },
  "size_t": 129,
  "size_x": 64,
  "size_y": 64,
  "size_z": 34,
  "snr": 6.753803255259647,
  "spacing_tr": 2.3399999141693115,
  "spacing_x": 3.0,
  "spacing_y": 3.0,
  "spacing_z": 3.299999952316284,
  "summary_bg_k": 69.64236923640924,
  "summary_bg_mad": 8.907105650007624,
  "summary_bg_mean": 35.31167221069336,
  "summary_bg_median": 21.87596893310547,
  "summary_bg_n": 66811.0,
  "summary_bg_p05": 11.488371849060059,
  "summary_bg_p95": 93.66666412353516,
  "summary_bg_stdv": 53.87261199951172,
  "summary_fg_k": 2.1829995106061597,
  "summary_fg_mad": 117.11408292296854,
  "summary_fg_mean": 796.1692504882812,
  "summary_fg_median": 790.658935546875,
  "summary_fg_n": 39541.0,
  "summary_fg_p05": 633.7984619140625,
  "summary_fg_p95": 980.5038452148438,
  "summary_fg_stdv": 117.06721496582031,
  "tsnr": 48.78918149275705
}