{
  "aor": 0.012554140625,
  "aqi": 0.0223046575,
  "bids_meta": {
    "AcquisitionMatrixPE": 64,
    "AcquisitionNumber": 1,
    "AcquisitionTime": "09:58:33.387500",
    "BandwidthPerPixelPhaseEncode": 24.038,
    "BaseResolution": 64,
    "BodyPartExamined": "HEAD",
    "ConsistencyInfo": "N4_VD13A_LATEST_20120616",
    "ConversionSoftware": "dcm2niix",
    "ConversionSoftwareVersion": "v1.0.20181125  GCC6.3.0",
    "DerivedVendorReportedEchoSpacing": 0.000650012,
    "DeviceSerialNumber": "45250",
    "DwellTime": 4.6e-06,
    "EchoTime": 0.033,
    "EchoTrainLength": 64,
    "EffectiveEchoSpacing": 0.000650012,
    "FlipAngle": 90,
    "ImageOrientationPatientDICOM": [
      0.998342,
      -0.0146836,
      -0.0556618,
      0.00696987,
      0.99064,
      -0.136321
    ],
    "ImageType": [
      "ORIGINAL",
      "PRIMARY",
      "M",
      "ND",
      "NORM",
      "MOSAIC"
    ],
    "ImagingFrequency": 123.214,
    "InPlanePhaseEncodingDirectionDICOM": "COL",
    "InstitutionAddress": "Kopernikusstr._26_Graz_Graz_AT_8010",
    "InstitutionName": "KFU",
    "InstitutionalDepartmentName": "Department",
    "MRAcquisitionType": "2D",
    "MagneticFieldStrength": 3,
    "Manufacturer": "Siemens",
    "ManufacturersModelName": "Skyra",
    "Modality": "MR",
    "PartialFourier": 1,
    "PatientPosition": "HFS",
    "PercentPhaseFOV": 100,
    "PhaseEncodingDirection": "j-",
    "PhaseEncodingSteps": 64,
    "PhaseResolution": 1,
    "PixelBandwidth": 1700,
    "ProcedureStepDescription": "KFU_Entw-Psy",
    "ProtocolName": "fMRI_1",
    "PulseSequenceDetails": "%SiemensSeq%_ep2d_pace",
    "ReceiveCoilActiveElements": "HE1-4",
    "ReceiveCoilName": "HeadNeck_20",
    "ReconMatrixPE": 64,
    "RepetitionTime": 2.34,
    "SAR": 0.19523,
    "ScanOptions": "FS",
    "ScanningSequence": "EP",
    "SequenceName": "_epfid2d1_64",
    "SequenceVariant": "SK",
    "SeriesDescription": "fMRI_1",
    "SeriesNumber": 2,
    "ShimSetting": [
      -1610,
      -3634,
      -4388,
      512,
      441,
      301,
      -254,
      -443
    ],
    "SliceThickness": 3,
    "SliceTiming": [
      2.2525,
      2.1825,
      2.115,
      2.0475,
      1.9775,
      1.91,
      1.8425,
      1.7725,
      1.705,
      1.6375,
      1.57,
      1.5,
      1.4325,
      1.365,
      1.295,
      1.2275,
      1.16,
      1.0925,
      1.0225,
      0.955,
      0.8875,
      0.8175,
      0.75,
      0.6825,
      0.615,
      0.545,
      0.4775,
      0.41,
      0.34,
      0.2725,
      0.205,
      0.135,
      0.0675,
      0
    ],
    "SoftwareVersions": "syngo_MR_D13",
    "SpacingBetweenSlices": 3.3,
    "StationName": "FBMTMR1",
    "TaskName": "read",
    "TotalReadoutTime": 0.0409508,
    "TxRefAmp": 324.623,
    "dataset": "ds003126",
    "dcmmeta_affine": [
      [
        -2.995025157928467,
        0.020909609273076057,
        -0.18857020139694214,
        89.3839111328125
      ],
      [
        0.04405081272125244,
        2.9719207286834717,
        -0.44783222675323486,
        -112.88482666015625
      ],
      [
        -0.16698536276817322,
        0.4089622497558594,
        3.2640292644500732,
        -29.676834106445312
      ],
      [
        0.0,
        0.0,
        0.0,
        1.0
      ]
    ],
    "dcmmeta_reorient_transform": [
      [
        0.0,
        -1.0,
        0.0,
        63.0
      ],
      [
        1.0,
        0.0,
        0.0,
        0.0
      ],
      [
        0.0,
        0.0,
        1.0,
        0.0
      ],
      [
        0.0,
        0.0,
        0.0,
        1.0
      ]
    ],
    "dcmmeta_shape": [
      64,
      64,
      34,
      128
    ],
    "dcmmeta_slice_dim": 2,
    "dcmmeta_version": 0.6,
    "global": {
      "const": {
        "AcquisitionMatrix": [
          64,
          0,
          0,
          64
        ],
        "AngioFlag": "N",
        "BitsAllocated": 16,
        "BitsStored": 12,
        "BodyPartExamined": "HEAD",
        "Columns": 384,
        "EchoNumbers": 1,
        "EchoTime": 33.0,
        "EchoTrainLength": 64,
        "FlipAngle": 90.0,
        "HighBit": 11,
        "ImageOrientationPatient": [
          0.99834170357641,
          -0.014683603656,
          -0.0556617883635,
          0.00696986995876,
          0.99064023444987,
          -0.1363207497113
        ],
        "ImagePositionPatient": [
          -573.25077008627,
          -542.805363896,
          88.239405004824
        ],
        "ImageType": [
          "ORIGINAL",
          "PRIMARY",
          "M",
          "ND",
          "NORM",
          "MOSAIC"
        ],
        "ImagedNucleus": "1H",
        "ImagingFrequency": 123.214401,
        "InPlanePhaseEncodingDirection": "COL",
        "MRAcquisitionType": "2D",
        "MagneticFieldStrength": 3.0,
        "Manufacturer": "SIEMENS",
        "ManufacturerModelName": "Skyra",
        "Modality": "MR",
        "NumberOfAverages": 1.0,
        "NumberOfPhaseEncodingSteps": 64,
        "PercentPhaseFieldOfView": 100.0,
        "PercentSampling": 100.0,
        "PerformedProcedureStepStartTime": "093125.123000",
        "PhotometricInterpretation": "MONOCHROME2",
        "PixelBandwidth": 1700.0,
        "PixelRepresentation": 0,
        "PixelSpacing": [
          3.0,
          3.0
        ],
        "ProtocolName": "fMRI_1",
        "RepetitionTime": 2340.0,
        "Rows": 384,
        "SAR": 0.19523014571314,
        "SamplesPerPixel": 1,
        "ScanOptions": "FS",
        "ScanningSequence": "EP",
        "SequenceName": "*epfid2d1_64",
        "SequenceVariant": "SK",
        "SeriesDescription": "fMRI_1",
        "SeriesNumber": 2,
        "SeriesTime": "095931.746000",
        "SliceLocation": -19.14173978304,
        "SliceThickness": 3.0,
        "SmallestImagePixelValue": 0,
        "SoftwareVersions": "syngo MR D13",
        "SpacingBetweenSlices": 3.299999954447,
        "SpecificCharacterSet": "ISO_IR 100",
        "StudyID": "1",
        "StudyTime": "093125.068000",
        "TransmitCoilName": "Body",
        "VariableFlipAngleFlag": "N",
        "WindowCenterWidthExplanation": "Algo1",
        "dBdt": 0.0
      },
      "slices": {}
    },
    "modality": "bold",
    "run_id": 1,
    "session_id": "2",
    "subject_id": "047EPKL012014",
    "task_id": "read",
    "time": {
      "samples": {
        "AcquisitionNumber": [
          1,
          2,
          3,
          4,
          5,
          6,
          7,
          8,
          9,
          10,
          11,
          12,
          13,
          14,
          15,
          16,
          17,
          18,
          19,
          20,
          21,
          22,
          23,
          24,
          25,
          26,
          27,
          28,
          29,
          30,
          31,
          32,
          33,
          34,
          35,
          36,
          37,
          38,
          39,
          40,
          41,
          42,
          43,
          44,
          45,
          46,
          47,
          48,
          49,
          50,
          51,
          52,
          53,
          54,
          55,
          56,
          57,
          58,
          59,
          60,
          61,
          62,
          63,
          64,
          65,
          66,
          67,
          68,
          69,
          70,
          71,
          72,
          73,
          74,
          75,
          76,
          77,
          78,
          79,
          80,
          81,
          82,
          83,
          84,
          85,
          86,
          87,
          88,
          89,
          90,
          91,
          92,
          93,
          94,
          95,
          96,
          97,
          98,
          99,
          100,
          101,
          102,
          103,
          104,
          105,
          106,
          107,
          108,
          109,
          110,
          111,
          112,
          113,
          114,
          115,
          116,
          117,
          118,
          119,
          120,
          121,
          122,
          123,
          124,
          125,
          126,
          127,
          128
        ],
        "AcquisitionTime": [
          "095833.387500",
          "095835.727500",
          "095838.067500",
          "095840.407500",
          "095842.747500",
          "095845.087500",
          "095847.427500",
          "095849.767500",
          "095852.107500",
          "095854.447500",
          "095856.787500",
          "095859.127500",
          "095901.467500",
          "095903.807500",
          "095906.147500",
          "095908.487500",
          "095910.827500",
          "095913.167500",
          "095915.507500",
          "095917.847500",
          "095920.187500",
          "095922.527500",
          "095924.867500",
          "095927.207500",
          "095929.547500",
          "095931.887500",
          "095934.227500",
          "095936.567500",
          "095938.907500",
          "095941.247500",
          "095943.587500",
          "095945.927500",
          "095948.267500",
          "095950.607500",
          "095952.947500",
          "095955.287500",
          "095957.627500",
          "095959.967500",
          "100002.307500",
          "100004.647500",
          "100006.987500",
          "100009.327500",
          "100011.667500",
          "100014.007500",
          "100016.347500",
          "100018.687500",
          "100021.027500",
          "100023.367500",
          "100025.707500",
          "100028.047500",
          "100030.387500",
          "100032.727500",
          "100035.067500",
          "100037.407500",
          "100039.747500",
          "100042.087500",
          "100044.427500",
          "100046.767500",
          "100049.107500",
          "100051.447500",
          "100053.787500",
          "100056.127500",
          "100058.467500",
          "100100.807500",
          "100103.147500",
          "100105.487500",
          "100107.827500",
          "100110.167500",
          "100112.507500",
          "100114.847500",
          "100117.187500",
          "100119.527500",
          "100121.867500",
          "100124.207500",
          "100126.547500",
          "100128.887500",
          "100131.227500",
          "100133.567500",
          "100135.907500",
          "100138.247500",
          "100140.587500",
          "100142.927500",
          "100145.267500",
          "100147.607500",
          "100149.947500",
          "100152.287500",
          "100154.627500",
          "100156.967500",
          "100159.307500",
          "100201.647500",
          "100203.987500",
          "100206.327500",
          "100208.667500",
          "100211.007500",
          "100213.347500",
          "100215.687500",
          "100218.027500",
          "100220.367500",
          "100222.707500",
          "100225.047500",
          "100227.387500",
          "100229.727500",
          "100232.067500",
          "100234.407500",
          "100236.747500",
          "100239.087500",
          "100241.427500",
          "100243.767500",
          "100246.107500",
          "100248.447500",
          "100250.787500",
          "100253.127500",
          "100255.467500",
          "100257.807500",
          "100300.147500",
          "100302.487500",
          "100304.827500",
          "100307.167500",
          "100309.507500",
          "100311.847500",
          "100314.187500",
          "100316.527500",
          "100318.867500",
          "100321.207500",
          "100323.547500",
          "100325.887500",
          "100328.227500",
          "100330.567500"
        ],
        "ContentTime": [
          "095931.751000",
          "095931.755000",
          "095931.758000",
          "095931.760000",
          "095931.763000",
          "095931.766000",
          "095931.769000",
          "095931.771000",
          "095931.774000",
          "095931.777000",
          "095931.779000",
          "095931.782000",
          "095931.785000",
          "095931.787000",
          "095931.790000",
          "095931.793000",
          "095931.796000",
          "095931.798000",
          "095931.801000",
          "095931.804000",
          "095931.806000",
          "095931.809000",
          "095931.812000",
          "095931.814000",
          "095931.817000",
          "100031.728000",
          "100031.732000",
          "100031.735000",
          "100031.737000",
          "100031.740000",
          "100031.742000",
          "100031.745000",
          "100031.748000",
          "100031.750000",
          "100031.753000",
          "100031.755000",
          "100031.758000",
          "100031.761000",
          "100031.763000",
          "100031.766000",
          "100031.768000",
          "100031.771000",
          "100031.774000",
          "100031.776000",
          "100031.779000",
          "100031.788000",
          "100031.791000",
          "100031.794000",
          "100031.796000",
          "100031.799000",
          "100031.802000",
          "100131.728000",
          "100131.731000",
          "100131.734000",
          "100131.736000",
          "100131.739000",
          "100131.742000",
          "100131.744000",
          "100131.747000",
          "100131.750000",
          "100131.752000",
          "100131.755000",
          "100131.758000",
          "100131.760000",
          "100131.763000",
          "100131.765000",
          "100131.768000",
          "100131.771000",
          "100131.774000",
          "100131.777000",
          "100131.779000",
          "100131.782000",
          "100131.785000",
          "100131.787000",
          "100131.790000",
          "100131.792000",
          "100231.728000",
          "100231.731000",
          "100231.734000",
          "100231.737000",
          "100231.740000",
          "100231.743000",
          "100231.745000",
          "100231.748000",
          "100231.751000",
          "100231.753000",
          "100231.756000",
          "100231.769000",
          "100231.772000",
          "100231.774000",
          "100231.777000",
          "100231.780000",
          "100231.782000",
          "100231.785000",
          "100231.787000",
          "100231.790000",
          "100231.793000",
          "100231.795000",
          "100231.798000",
          "100231.800000",
          "100231.803000",
          "100231.806000",
          "100331.729000",
          "100331.732000",
          "100331.735000",
          "100331.738000",
          "100331.740000",
          "100331.743000",
          "100331.746000",
          "100331.748000",
          "100331.751000",
          "100331.754000",
          "100331.757000",
          "100331.760000",
          "100331.763000",
          "100331.766000",
          "100331.768000",
          "100331.771000",
          "100331.774000",
          "100331.777000",
          "100331.780000",
          "100331.782000",
          "100331.785000",
          "100331.788000",
          "100331.791000",
          "100331.793000",
          "100331.796000",
          "100331.799000"
        ],
        "InstanceCreationTime": [
          "095931.751000",
          "095931.755000",
          "095931.758000",
          "095931.760000",
          "095931.763000",
          "095931.766000",
          "095931.769000",
          "095931.771000",
          "095931.774000",
          "095931.777000",
          "095931.779000",
          "095931.782000",
          "095931.785000",
          "095931.787000",
          "095931.790000",
          "095931.793000",
          "095931.796000",
          "095931.798000",
          "095931.801000",
          "095931.804000",
          "095931.806000",
          "095931.809000",
          "095931.812000",
          "095931.814000",
          "095931.817000",
          "100031.728000",
          "100031.732000",
          "100031.735000",
          "100031.737000",
          "100031.740000",
          "100031.742000",
          "100031.745000",
          "100031.748000",
          "100031.750000",
          "100031.753000",
          "100031.755000",
          "100031.758000",
          "100031.761000",
          "100031.763000",
          "100031.766000",
          "100031.768000",
          "100031.771000",
          "100031.774000",
          "100031.776000",
          "100031.779000",
          "100031.788000",
          "100031.791000",
          "100031.794000",
          "100031.796000",
          "100031.799000",
          "100031.802000",
          "100131.728000",
          "100131.731000",
          "100131.734000",
          "100131.736000",
          "100131.739000",
          "100131.742000",
          "100131.744000",
          "100131.747000",
          "100131.750000",
          "100131.752000",
          "100131.755000",
          "100131.758000",
          "100131.760000",
          "100131.763000",
          "100131.765000",
          "100131.768000",
          "100131.771000",
          "100131.774000",
          "100131.777000",
          "100131.779000",
          "100131.782000",
          "100131.785000",
          "100131.787000",
          "100131.790000",
          "100131.792000",
          "100231.728000",
          "100231.731000",
          "100231.734000",
          "100231.737000",
          "100231.740000",
          "100231.743000",
          "100231.745000",
          "100231.748000",
          "100231.751000",
          "100231.753000",
          "100231.756000",
          "100231.769000",
          "100231.772000",
          "100231.774000",
          "100231.777000",
          "100231.780000",
          "100231.782000",
          "100231.785000",
          "100231.787000",
          "100231.790000",
          "100231.793000",
          "100231.795000",
          "100231.798000",
          "100231.800000",
          "100231.803000",
          "100231.806000",
          "100331.729000",
          "100331.732000",
          "100331.735000",
          "100331.738000",
          "100331.740000",
          "100331.743000",
          "100331.746000",
          "100331.748000",
          "100331.751000",
          "100331.754000",
          "100331.757000",
          "100331.760000",
          "100331.763000",
          "100331.766000",
          "100331.768000",
          "100331.771000",
          "100331.774000",
          "100331.777000",
          "100331.780000",
          "100331.782000",
          "100331.785000",
          "100331.788000",
          "100331.791000",
          "100331.793000",
          "100331.796000",
          "100331.799000"
        ],
        "InstanceNumber": [
          1,
          2,
          3,
          4,
          5,
          6,
          7,
          8,
          9,
          10,
          11,
          12,
          13,
          14,
          15,
          16,
          17,
          18,
          19,
          20,
          21,
          22,
          23,
          24,
          25,
          26,
          27,
          28,
          29,
          30,
          31,
          32,
          33,
          34,
          35,
          36,
          37,
          38,
          39,
          40,
          41,
          42,
          43,
          44,
          45,
          46,
          47,
          48,
          49,
          50,
          51,
          52,
          53,
          54,
          55,
          56,
          57,
          58,
          59,
          60,
          61,
          62,
          63,
          64,
          65,
          66,
          67,
          68,
          69,
          70,
          71,
          72,
          73,
          74,
          75,
          76,
          77,
          78,
          79,
          80,
          81,
          82,
          83,
          84,
          85,
          86,
          87,
          88,
          89,
          90,
          91,
          92,
          93,
          94,
          95,
          96,
          97,
          98,
          99,
          100,
          101,
          102,
          103,
          104,
          105,
          106,
          107,
          108,
          109,
          110,
          111,
          112,
          113,
          114,
          115,
          116,
          117,
          118,
          119,
          120,
          121,
          122,
          123,
          124,
          125,
          126,
          127,
          128
        ],
        "LargestImagePixelValue": [
          2906,
          2882,
          3152,
          2482,
          2848,
          2416,
          3358,
          2021,
          2793,
          2605,
          2435,
          2811,
          2035,
          2898,
          1968,
          1992,
          2538,
          2768,
          2830,
          3240,
          2973,
          2023,
          1895,
          2347,
          2632,
          2412,
          1979,
          2056,
          2908,
          3114,
          2067,
          2070,
          2092,
          3059,
          2982,
          2828,
          2029,
          2642,
          2339,
          2830,
          2290,
          2655,
          3320,
          2500,
          1994,
          2256,
          2210,
          2740,
          2861,
          2666,
          3202,
          2046,
          2012,
          2617,
          3052,
          2007,
          2369,
          2482,
          2704,
          2637,
          3065,
          2056,
          2471,
          2829,
          1974,
          2412,
          2406,
          2718,
          2957,
          2699,
          1966,
          3021,
          2965,
          2812,
          3198,
          1992,
          1959,
          2632,
          2774,
          2113,
          2156,
          2731,
          2053,
          3016,
          2546,
          2573,
          2981,
          3341,
          2070,
          1908,
          2889,
          2898,
          3153,
          2186,
          2669,
          2781,
          3124,
          2283,
          2923,
          3345,
          2165,
          1948,
          2015,
          2895,
          3128,
          2225,
          1948,
          3321,
          3197,
          2222,
          3325,
          2847,
          1974,
          2396,
          2071,
          1922,
          2086,
          2601,
          2136,
          2033,
          1961,
          2576,
          3240,
          3036,
          2097,
          1982,
          2094,
          2527
        ],
        "WindowCenter": [
          804.0,
          804.0,
          802.0,
          800.0,
          800.0,
          800.0,
          799.0,
          797.0,
          800.0,
          800.0,
          799.0,
          803.0,
          802.0,
          804.0,
          802.0,
          805.0,
          806.0,
          809.0,
          805.0,
          804.0,
          799.0,
          799.0,
          801.0,
          803.0,
          803.0,
          803.0,
          804.0,
          805.0,
          805.0,
          804.0,
          802.0,
          808.0,
          807.0,
          806.0,
          803.0,
          800.0,
          802.0,
          806.0,
          804.0,
          805.0,
          802.0,
          803.0,
          802.0,
          800.0,
          801.0,
          804.0,
          804.0,
          806.0,
          805.0,
          805.0,
          803.0,
          800.0,
          803.0,
          806.0,
          804.0,
          800.0,
          805.0,
          805.0,
          805.0,
          806.0,
          803.0,
          802.0,
          803.0,
          804.0,
          803.0,
          807.0,
          807.0,
          806.0,
          802.0,
          801.0,
          802.0,
          805.0,
          804.0,
          804.0,
          805.0,
          804.0,
          805.0,
          806.0,
          804.0,
          802.0,
          804.0,
          806.0,
          804.0,
          805.0,
          803.0,
          804.0,
          804.0,
          804.0,
          801.0,
          804.0,
          808.0,
          806.0,
          806.0,
          806.0,
          806.0,
          807.0,
          806.0,
          806.0,
          805.0,
          803.0,
          801.0,
          801.0,
          806.0,
          807.0,
          807.0,
          808.0,
          801.0,
          806.0,
          803.0,
          797.0,
          798.0,
          803.0,
          799.0,
          802.0,
          800.0,
          805.0,
          805.0,
          806.0,
          803.0,
          807.0,
          811.0,
          806.0,
          803.0,
          801.0,
          795.0,
          804.0,
          802.0,
          804.0
        ],
        "WindowWidth": [
          1712.0,
          1709.0,
          1705.0,
          1700.0,
          1702.0,
          1701.0,
          1698.0,
          1690.0,
          1698.0,
          1698.0,
          1696.0,
          1706.0,
          1704.0,
          1709.0,
          1704.0,
          1712.0,
          1715.0,
          1721.0,
          1711.0,
          1708.0,
          1697.0,
          1697.0,
          1700.0,
          1707.0,
          1708.0,
          1708.0,
          1710.0,
          1711.0,
          1713.0,
          1709.0,
          1701.0,
          1720.0,
          1715.0,
          1713.0,
          1707.0,
          1702.0,
          1704.0,
          1714.0,
          1709.0,
          1713.0,
          1706.0,
          1707.0,
          1706.0,
          1700.0,
          1701.0,
          1710.0,
          1709.0,
          1714.0,
          1712.0,
          1713.0,
          1708.0,
          1699.0,
          1708.0,
          1713.0,
          1708.0,
          1700.0,
          1712.0,
          1712.0,
          1712.0,
          1715.0,
          1707.0,
          1704.0,
          1708.0,
          1709.0,
          1708.0,
          1717.0,
          1717.0,
          1715.0,
          1707.0,
          1703.0,
          1704.0,
          1714.0,
          1710.0,
          1710.0,
          1712.0,
          1709.0,
          1712.0,
          1715.0,
          1710.0,
          1704.0,
          1708.0,
          1715.0,
          1712.0,
          1713.0,
          1708.0,
          1710.0,
          1710.0,
          1711.0,
          1702.0,
          1710.0,
          1721.0,
          1714.0,
          1714.0,
          1712.0,
          1717.0,
          1717.0,
          1713.0,
          1714.0,
          1712.0,
          1708.0,
          1702.0,
          1702.0,
          1715.0,
          1719.0,
          1716.0,
          1720.0,
          1704.0,
          1719.0,
          1705.0,
          1691.0,
          1695.0,
          1707.0,
          1698.0,
          1704.0,
          1697.0,
          1712.0,
          1711.0,
          1715.0,
          1706.0,
          1718.0,
          1730.0,
          1716.0,
          1711.0,
          1702.0,
          1685.0,
          1710.0,
          1705.0,
          1709.0
        ]
      },
      "slices": {}
    }
  },
  "dummy_trs": 0,
  "dvars_nstd": 46.32634988944879,
  "dvars_std": 1.3488845290551181,
  "dvars_vstd": 1.108542045590551,
  "efc": 0.5694901591122186,
  "fber": 1652.8426513671875,
  "fd_mean": 0.7465428202872213,
  "fd_num": 121,
  "fd_perc": 94.53125,
  "fwhm_avg": 1.6334143875144178,
  "fwhm_x": 1.4990266666666667,
  "fwhm_y": 1.8759133333333333,
  "fwhm_z": 1.5253031625432532,
  "gcor": 0.0396833,
  "gsr_x": -0.013351981528103352,
  "gsr_y": 0.04902949184179306,
  "provenance": {
    "md5sum": "d786fa02b59dad7c4cfd465aeafdf571",
    "settings": {
      "fd_thres": 0.2,
      "testing": false
    },
    "software": "mriqc",
    "version": "22.0.1",
    "webapi_port": null,
    "webapi_url": "https://mriqc.nimh.nih.gov/api/v1"
  },
  "size_t": 128,
  "size_x": 64,
  "size_y": 64,
  "size_z": 34,
  "snr": 6.501510566184001,
  "spacing_tr": 2.3399999141693115,
  "spacing_x": 3.0,
  "spacing_y": 3.0,
  "spacing_z": 3.299999713897705,
  "summary_bg_k": 60.12425930769895,
  "summary_bg_mad": 7.795244476986485,
  "summary_bg_mean": 34.07413101196289,
  "summary_bg_median": 22.375,
  "summary_bg_n": 72491.0,
  "summary_bg_p05": 12.9453125,
  "summary_bg_p95": 81.01953125,
  "summary_bg_stdv": 51.27341842651367,
  "summary_fg_k": 3.1520887196244853,
  "summary_fg_mad": 131.27979331673822,
  "summary_fg_mean": 929.9742431640625,
  "summary_fg_median": 927.109375,
  "summary_fg_n": 34409.0,
  "summary_fg_p05": 729.809375,
  "summary_fg_p95": 1138.5671874999998,
  "summary_fg_stdv": 142.5970001220703,
  "tsnr": 42.38672739244066
}