{
  "aor": 0.008068682170542636,
  "aqi": 0.03779174434108527,
  "bids_meta": {
    "AcquisitionMatrixPE": 64,
    "AcquisitionNumber": 1,
    "AcquisitionTime": "12:57:29.207500",
    "BandwidthPerPixelPhaseEncode": 24.038,
    "BaseResolution": 64,
    "BodyPartExamined": "HEAD",
    "ConsistencyInfo": "N4_VD13A_LATEST_20120616",
    "ConversionSoftware": "dcm2niix",
    "ConversionSoftwareVersion": "v1.0.20181125  GCC6.3.0",
    "DerivedVendorReportedEchoSpacing": 0.000650012,
    "DeviceSerialNumber": "45250",
    "DwellTime": 4.6e-06,
    "EchoTime": 0.033,
    "EchoTrainLength": 64,
    "EffectiveEchoSpacing": 0.000650012,
    "FlipAngle": 90,
    "ImageOrientationPatientDICOM": [
      0.999919,
      -0.00501444,
      -0.0116725,
      0.00349036,
      0.991883,
      -0.127107
    ],
    "ImageType": [
      "ORIGINAL",
      "PRIMARY",
      "M",
      "ND",
      "NORM",
      "MOSAIC"
    ],
    "ImagingFrequency": 123.22,
    "InPlanePhaseEncodingDirectionDICOM": "COL",
    "InstitutionAddress": "Kopernikusstr._26_Graz_Graz_AT_8010",
    "InstitutionName": "KFU",
    "InstitutionalDepartmentName": "Department",
    "MRAcquisitionType": "2D",
    "MagneticFieldStrength": 3,
    "Manufacturer": "Siemens",
    "ManufacturersModelName": "Skyra",
    "Modality": "MR",
    "PartialFourier": 1,
    "PatientPosition": "HFS",
    "PercentPhaseFOV": 100,
    "PhaseEncodingDirection": "j-",
    "PhaseEncodingSteps": 64,
    "PhaseResolution": 1,
    "PixelBandwidth": 1700,
    "ProcedureStepDescription": "KFU_Entw-Psy",
    "ProtocolName": "fMRI_1",
    "PulseSequenceDetails": "%SiemensSeq%_ep2d_pace",
    "ReceiveCoilActiveElements": "HE1-4",
    "ReceiveCoilName": "HeadNeck_20",
    "ReconMatrixPE": 64,
    "RepetitionTime": 2.34,
    "SAR": 0.157857,
    "ScanOptions": "FS",
    "ScanningSequence": "EP",
    "SequenceName": "_epfid2d1_64",
    "SequenceVariant": "SK",
    "SeriesDescription": "fMRI_1",
    "SeriesNumber": 2,
    "ShimSetting": [
      -1661,
      -3765,
      -4176,
      494,
      476,
      34,
      556,
      -111
    ],
    "SliceThickness": 3,
    "SliceTiming": [
      2.2525,
      2.185,
      2.115,
      2.0475,
      1.98,
      1.9125,
      1.8425,
      1.775,
      1.7075,
      1.6375,
      1.57,
      1.5025,
      1.4325,
      1.365,
      1.2975,
      1.23,
      1.16,
      1.0925,
      1.025,
      0.955,
      0.8875,
      0.82,
      0.7525,
      0.6825,
      0.615,
      0.5475,
      0.4775,
      0.41,
      0.3425,
      0.275,
      0.205,
      0.1375,
      0.07,
      0
    ],
    "SoftwareVersions": "syngo_MR_D13",
    "SpacingBetweenSlices": 3.3,
    "StationName": "FBMTMR1",
    "TaskName": "read",
    "TotalReadoutTime": 0.0409508,
    "TxRefAmp": 347.819,
    "dataset": "ds003126",
    "dcmmeta_affine": [
      [
        -2.999758005142212,
        0.010471068322658539,
        -0.04030995070934296,
        92.91065979003906
      ],
      [
        0.015043321996927261,
        2.9756484031677246,
        -0.41928619146347046,
        -106.34555053710938
      ],
      [
        -0.03501753509044647,
        0.3813222646713257,
        3.2730069160461426,
        -15.803230285644531
      ],
      [
        0.0,
        0.0,
        0.0,
        1.0
      ]
    ],
    "dcmmeta_reorient_transform": [
      [
        0.0,
        -1.0,
        0.0,
        63.0
      ],
      [
        1.0,
        0.0,
        0.0,
        0.0
      ],
      [
        0.0,
        0.0,
        1.0,
        0.0
      ],
      [
        0.0,
        0.0,
        0.0,
        1.0
      ]
    ],
    "dcmmeta_shape": [
      64,
      64,
      34,
      129
    ],
    "dcmmeta_slice_dim": 2,
    "dcmmeta_version": 0.6,
    "global": {
      "const": {
        "AcquisitionMatrix": [
          64,
          0,
          0,
          64
        ],
        "AngioFlag": "N",
        "BitsAllocated": 16,
        "BitsStored": 12,
        "BodyPartExamined": "HEAD",
        "Columns": 384,
        "EchoNumbers": 1,
        "EchoTime": 33.0,
        "EchoTrainLength": 64,
        "FlipAngle": 90.0,
        "HighBit": 11,
        "ImageOrientationPatient": [
          0.99991930066611,
          -0.0050144406307,
          -0.0116725121783,
          0.00349035623752,
          0.99188281606602,
          -0.1271074215232
        ],
        "ImagePositionPatient": [
          -575.20697313584,
          -554.81711896601,
          74.834440965976
        ],
        "ImageType": [
          "ORIGINAL",
          "PRIMARY",
          "M",
          "ND",
          "NORM",
          "MOSAIC"
        ],
        "ImagedNucleus": "1H",
        "ImagingFrequency": 123.220031,
        "InPlanePhaseEncodingDirection": "COL",
        "MRAcquisitionType": "2D",
        "MagneticFieldStrength": 3.0,
        "Manufacturer": "SIEMENS",
        "ManufacturerModelName": "Skyra",
        "Modality": "MR",
        "NumberOfAverages": 1.0,
        "NumberOfPhaseEncodingSteps": 64,
        "PercentPhaseFieldOfView": 100.0,
        "PercentSampling": 100.0,
        "PerformedProcedureStepStartTime": "125523.263000",
        "PhotometricInterpretation": "MONOCHROME2",
        "PixelBandwidth": 1700.0,
        "PixelRepresentation": 0,
        "PixelSpacing": [
          3.0,
          3.0
        ],
        "ProtocolName": "fMRI_1",
        "RepetitionTime": 2340.0,
        "Rows": 384,
        "SAR": 0.15785717328513,
        "SamplesPerPixel": 1,
        "ScanOptions": "FS",
        "ScanningSequence": "EP",
        "SequenceName": "*epfid2d1_64",
        "SequenceVariant": "SK",
        "SeriesDescription": "fMRI_1",
        "SeriesNumber": 2,
        "SeriesTime": "125802.509000",
        "SliceLocation": -3.2969946151221,
        "SliceThickness": 3.0,
        "SmallestImagePixelValue": 0,
        "SoftwareVersions": "syngo MR D13",
        "SpacingBetweenSlices": 3.2999999526743,
        "SpecificCharacterSet": "ISO_IR 100",
        "StudyID": "1",
        "StudyTime": "125523.210000",
        "TransmitCoilName": "Body",
        "VariableFlipAngleFlag": "N",
        "WindowCenterWidthExplanation": "Algo1",
        "dBdt": 0.0
      },
      "slices": {}
    },
    "modality": "bold",
    "run_id": 1,
    "session_id": "2",
    "subject_id": "047EPKL011063",
    "task_id": "read",
    "time": {
      "samples": {
        "AcquisitionNumber": [
          1,
          2,
          3,
          4,
          5,
          6,
          7,
          8,
          9,
          10,
          11,
          12,
          13,
          14,
          15,
          16,
          17,
          18,
          19,
          20,
          21,
          22,
          23,
          24,
          25,
          26,
          27,
          28,
          29,
          30,
          31,
          32,
          33,
          34,
          35,
          36,
          37,
          38,
          39,
          40,
          41,
          42,
          43,
          44,
          45,
          46,
          47,
          48,
          49,
          50,
          51,
          52,
          53,
          54,
          55,
          56,
          57,
          58,
          59,
          60,
          61,
          62,
          63,
          64,
          65,
          66,
          67,
          68,
          69,
          70,
          71,
          72,
          73,
          74,
          75,
          76,
          77,
          78,
          79,
          80,
          81,
          82,
          83,
          84,
          85,
          86,
          87,
          88,
          89,
          90,
          91,
          92,
          93,
          94,
          95,
          96,
          97,
          98,
          99,
          100,
          101,
          102,
          103,
          104,
          105,
          106,
          107,
          108,
          109,
          110,
          111,
          112,
          113,
          114,
          115,
          116,
          117,
          118,
          119,
          120,
          121,
          122,
          123,
          124,
          125,
          126,
          127,
          128,
          129
        ],
        "AcquisitionTime": [
          "125729.207500",
          "125731.547500",
          "125733.887500",
          "125736.227500",
          "125738.567500",
          "125740.907500",
          "125743.247500",
          "125745.587500",
          "125747.927500",
          "125750.267500",
          "125752.607500",
          "125754.947500",
          "125757.287500",
          "125759.627500",
          "125801.967500",
          "125804.307500",
          "125806.647500",
          "125808.987500",
          "125811.327500",
          "125813.667500",
          "125816.007500",
          "125818.347500",
          "125820.687500",
          "125823.027500",
          "125825.367500",
          "125827.707500",
          "125830.047500",
          "125832.387500",
          "125834.727500",
          "125837.067500",
          "125839.407500",
          "125841.747500",
          "125844.087500",
          "125846.427500",
          "125848.767500",
          "125851.107500",
          "125853.447500",
          "125855.787500",
          "125858.127500",
          "125900.467500",
          "125902.807500",
          "125905.147500",
          "125907.487500",
          "125909.827500",
          "125912.167500",
          "125914.507500",
          "125916.847500",
          "125919.187500",
          "125921.527500",
          "125923.867500",
          "125926.207500",
          "125928.547500",
          "125930.887500",
          "125933.227500",
          "125935.567500",
          "125937.907500",
          "125940.247500",
          "125942.587500",
          "125944.927500",
          "125947.267500",
          "125949.607500",
          "125951.947500",
          "125954.287500",
          "125956.627500",
          "125958.967500",
          "130001.307500",
          "130003.647500",
          "130005.987500",
          "130008.327500",
          "130010.667500",
          "130013.007500",
          "130015.347500",
          "130017.687500",
          "130020.027500",
          "130022.367500",
          "130024.707500",
          "130027.047500",
          "130029.387500",
          "130031.727500",
          "130034.067500",
          "130036.407500",
          "130038.747500",
          "130041.087500",
          "130043.427500",
          "130045.767500",
          "130048.107500",
          "130050.447500",
          "130052.787500",
          "130055.127500",
          "130057.467500",
          "130059.807500",
          "130102.147500",
          "130104.487500",
          "130106.827500",
          "130109.167500",
          "130111.507500",
          "130113.847500",
          "130116.187500",
          "130118.527500",
          "130120.867500",
          "130123.207500",
          "130125.547500",
          "130127.887500",
          "130130.227500",
          "130132.567500",
          "130134.907500",
          "130137.247500",
          "130139.587500",
          "130141.927500",
          "130144.267500",
          "130146.607500",
          "130148.947500",
          "130151.287500",
          "130153.627500",
          "130155.967500",
          "130158.307500",
          "130200.647500",
          "130202.987500",
          "130205.327500",
          "130207.667500",
          "130210.007500",
          "130212.347500",
          "130214.687500",
          "130217.027500",
          "130219.367500",
          "130221.707500",
          "130224.047500",
          "130226.387500",
          "130228.727500"
        ],
        "ContentTime": [
          "125802.514000",
          "125802.518000",
          "125802.521000",
          "125802.524000",
          "125802.528000",
          "125802.532000",
          "125802.546000",
          "125802.550000",
          "125802.553000",
          "125802.555000",
          "125802.558000",
          "125802.561000",
          "125802.564000",
          "125802.567000",
          "125902.508000",
          "125902.511000",
          "125902.514000",
          "125902.517000",
          "125902.520000",
          "125902.522000",
          "125902.525000",
          "125902.528000",
          "125902.531000",
          "125902.544000",
          "125902.560000",
          "125902.563000",
          "125902.565000",
          "125902.568000",
          "125902.571000",
          "125902.574000",
          "125902.577000",
          "125902.580000",
          "125902.582000",
          "125902.585000",
          "125902.588000",
          "125902.591000",
          "125902.594000",
          "125902.596000",
          "125902.599000",
          "125902.602000",
          "130002.507000",
          "130002.511000",
          "130002.514000",
          "130002.516000",
          "130002.519000",
          "130002.522000",
          "130002.525000",
          "130002.528000",
          "130002.530000",
          "130002.533000",
          "130002.536000",
          "130002.539000",
          "130002.542000",
          "130002.544000",
          "130002.547000",
          "130002.550000",
          "130002.553000",
          "130002.556000",
          "130002.559000",
          "130002.562000",
          "130002.564000",
          "130002.567000",
          "130002.570000",
          "130002.573000",
          "130002.576000",
          "130002.579000",
          "130102.507000",
          "130102.511000",
          "130102.513000",
          "130102.516000",
          "130102.519000",
          "130102.522000",
          "130102.525000",
          "130102.528000",
          "130102.530000",
          "130102.533000",
          "130102.536000",
          "130102.539000",
          "130102.542000",
          "130102.545000",
          "130102.547000",
          "130102.550000",
          "130102.553000",
          "130102.556000",
          "130102.559000",
          "130102.562000",
          "130102.564000",
          "130102.567000",
          "130102.570000",
          "130102.573000",
          "130102.576000",
          "130202.508000",
          "130202.511000",
          "130202.514000",
          "130202.517000",
          "130202.519000",
          "130202.522000",
          "130202.524000",
          "130202.527000",
          "130202.530000",
          "130202.533000",
          "130202.535000",
          "130202.538000",
          "130202.541000",
          "130202.543000",
          "130202.546000",
          "130202.549000",
          "130202.552000",
          "130202.554000",
          "130202.557000",
          "130202.560000",
          "130202.562000",
          "130202.565000",
          "130202.568000",
          "130202.571000",
          "130202.574000",
          "130202.576000",
          "130230.143000",
          "130230.146000",
          "130230.149000",
          "130230.154000",
          "130230.158000",
          "130230.162000",
          "130230.165000",
          "130230.168000",
          "130230.171000",
          "130230.174000",
          "130230.176000",
          "130230.179000"
        ],
        "InstanceCreationTime": [
          "125802.514000",
          "125802.518000",
          "125802.521000",
          "125802.524000",
          "125802.528000",
          "125802.532000",
          "125802.546000",
          "125802.550000",
          "125802.553000",
          "125802.555000",
          "125802.558000",
          "125802.561000",
          "125802.564000",
          "125802.567000",
          "125902.508000",
          "125902.511000",
          "125902.514000",
          "125902.517000",
          "125902.520000",
          "125902.522000",
          "125902.525000",
          "125902.528000",
          "125902.531000",
          "125902.544000",
          "125902.560000",
          "125902.563000",
          "125902.565000",
          "125902.568000",
          "125902.571000",
          "125902.574000",
          "125902.577000",
          "125902.580000",
          "125902.582000",
          "125902.585000",
          "125902.588000",
          "125902.591000",
          "125902.594000",
          "125902.596000",
          "125902.599000",
          "125902.602000",
          "130002.507000",
          "130002.511000",
          "130002.514000",
          "130002.516000",
          "130002.519000",
          "130002.522000",
          "130002.525000",
          "130002.528000",
          "130002.530000",
          "130002.533000",
          "130002.536000",
          "130002.539000",
          "130002.542000",
          "130002.544000",
          "130002.547000",
          "130002.550000",
          "130002.553000",
          "130002.556000",
          "130002.559000",
          "130002.562000",
          "130002.564000",
          "130002.567000",
          "130002.570000",
          "130002.573000",
          "130002.576000",
          "130002.579000",
          "130102.507000",
          "130102.511000",
          "130102.513000",
          "130102.516000",
          "130102.519000",
          "130102.522000",
          "130102.525000",
          "130102.528000",
          "130102.530000",
          "130102.533000",
          "130102.536000",
          "130102.539000",
          "130102.542000",
          "130102.545000",
          "130102.547000",
          "130102.550000",
          "130102.553000",
          "130102.556000",
          "130102.559000",
          "130102.562000",
          "130102.564000",
          "130102.567000",
          "130102.570000",
          "130102.573000",
          "130102.576000",
          "130202.508000",
          "130202.511000",
          "130202.514000",
          "130202.517000",
          "130202.519000",
          "130202.522000",
          "130202.524000",
          "130202.527000",
          "130202.530000",
          "130202.533000",
          "130202.535000",
          "130202.538000",
          "130202.541000",
          "130202.543000",
          "130202.546000",
          "130202.549000",
          "130202.552000",
          "130202.554000",
          "130202.557000",
          "130202.560000",
          "130202.562000",
          "130202.565000",
          "130202.568000",
          "130202.571000",
          "130202.574000",
          "130202.576000",
          "130230.143000",
          "130230.146000",
          "130230.149000",
          "130230.154000",
          "130230.158000",
          "130230.162000",
          "130230.165000",
          "130230.168000",
          "130230.171000",
          "130230.174000",
          "130230.176000",
          "130230.179000"
        ],
        "InstanceNumber": [
          1,
          2,
          3,
          4,
          5,
          6,
          7,
          8,
          9,
          10,
          11,
          12,
          13,
          14,
          15,
          16,
          17,
          18,
          19,
          20,
          21,
          22,
          23,
          24,
          25,
          26,
          27,
          28,
          29,
          30,
          31,
          32,
          33,
          34,
          35,
          36,
          37,
          38,
          39,
          40,
          41,
          42,
          43,
          44,
          45,
          46,
          47,
          48,
          49,
          50,
          51,
          52,
          53,
          54,
          55,
          56,
          57,
          58,
          59,
          60,
          61,
          62,
          63,
          64,
          65,
          66,
          67,
          68,
          69,
          70,
          71,
          72,
          73,
          74,
          75,
          76,
          77,
          78,
          79,
          80,
          81,
          82,
          83,
          84,
          85,
          86,
          87,
          88,
          89,
          90,
          91,
          92,
          93,
          94,
          95,
          96,
          97,
          98,
          99,
          100,
          101,
          102,
          103,
          104,
          105,
          106,
          107,
          108,
          109,
          110,
          111,
          112,
          113,
          114,
          115,
          116,
          117,
          118,
          119,
          120,
          121,
          122,
          123,
          124,
          125,
          126,
          127,
          128,
          129
        ],
        "LargestImagePixelValue": [
          2827,
          2224,
          2379,
          1899,
          3073,
          3250,
          3126,
          2932,
          2288,
          3042,
          2496,
          1865,
          2540,
          2012,
          1944,
          2788,
          2744,
          1724,
          2762,
          2287,
          2721,
          2764,
          2837,
          1898,
          2036,
          3046,
          3076,
          3371,
          3501,
          2083,
          1820,
          1922,
          2832,
          2660,
          1970,
          3449,
          2118,
          1900,
          2497,
          1994,
          2632,
          2415,
          2177,
          2964,
          2326,
          2478,
          2517,
          1977,
          2406,
          2498,
          2171,
          2357,
          1943,
          2470,
          3128,
          2510,
          1974,
          1851,
          3018,
          3097,
          1999,
          2853,
          2300,
          1877,
          2241,
          3406,
          3449,
          1997,
          1964,
          2330,
          2745,
          1818,
          2169,
          2224,
          2321,
          3322,
          3355,
          3137,
          2273,
          1811,
          2287,
          2677,
          2909,
          3091,
          3118,
          1916,
          2394,
          3344,
          2215,
          1848,
          3326,
          2608,
          3150,
          2005,
          2318,
          3290,
          2198,
          3289,
          1885,
          1831,
          2305,
          1851,
          2825,
          2190,
          2475,
          3015,
          1761,
          3048,
          2098,
          1935,
          3633,
          3455,
          2277,
          2565,
          1805,
          1802,
          2116,
          3240,
          2937,
          2130,
          1783,
          3018,
          3076,
          3040,
          2663,
          2287,
          2098,
          2225,
          2752
        ],
        "WindowCenter": [
          850.0,
          852.0,
          851.0,
          855.0,
          854.0,
          851.0,
          848.0,
          848.0,
          849.0,
          847.0,
          848.0,
          846.0,
          849.0,
          847.0,
          847.0,
          847.0,
          848.0,
          845.0,
          847.0,
          850.0,
          847.0,
          849.0,
          849.0,
          846.0,
          848.0,
          849.0,
          845.0,
          847.0,
          845.0,
          845.0,
          842.0,
          844.0,
          843.0,
          845.0,
          843.0,
          846.0,
          846.0,
          844.0,
          847.0,
          846.0,
          845.0,
          847.0,
          843.0,
          845.0,
          842.0,
          842.0,
          845.0,
          846.0,
          844.0,
          844.0,
          842.0,
          841.0,
          845.0,
          847.0,
          844.0,
          842.0,
          844.0,
          847.0,
          848.0,
          846.0,
          844.0,
          848.0,
          848.0,
          849.0,
          848.0,
          849.0,
          844.0,
          844.0,
          844.0,
          845.0,
          847.0,
          845.0,
          848.0,
          850.0,
          850.0,
          849.0,
          848.0,
          847.0,
          847.0,
          849.0,
          850.0,
          850.0,
          847.0,
          848.0,
          847.0,
          849.0,
          849.0,
          850.0,
          850.0,
          849.0,
          847.0,
          845.0,
          842.0,
          842.0,
          839.0,
          842.0,
          841.0,
          840.0,
          840.0,
          845.0,
          846.0,
          846.0,
          851.0,
          850.0,
          848.0,
          849.0,
          847.0,
          852.0,
          845.0,
          849.0,
          850.0,
          847.0,
          839.0,
          844.0,
          840.0,
          844.0,
          850.0,
          851.0,
          845.0,
          848.0,
          849.0,
          851.0,
          849.0,
          848.0,
          845.0,
          846.0,
          846.0,
          848.0,
          851.0
        ],
        "WindowWidth": [
          1778.0,
          1780.0,
          1779.0,
          1788.0,
          1790.0,
          1781.0,
          1774.0,
          1774.0,
          1774.0,
          1772.0,
          1770.0,
          1767.0,
          1774.0,
          1770.0,
          1769.0,
          1770.0,
          1771.0,
          1764.0,
          1772.0,
          1775.0,
          1770.0,
          1775.0,
          1773.0,
          1768.0,
          1770.0,
          1775.0,
          1767.0,
          1772.0,
          1768.0,
          1765.0,
          1758.0,
          1762.0,
          1759.0,
          1768.0,
          1760.0,
          1769.0,
          1765.0,
          1762.0,
          1770.0,
          1766.0,
          1763.0,
          1770.0,
          1760.0,
          1767.0,
          1758.0,
          1761.0,
          1766.0,
          1766.0,
          1765.0,
          1764.0,
          1758.0,
          1758.0,
          1764.0,
          1773.0,
          1764.0,
          1759.0,
          1764.0,
          1771.0,
          1774.0,
          1768.0,
          1764.0,
          1774.0,
          1774.0,
          1773.0,
          1774.0,
          1776.0,
          1765.0,
          1763.0,
          1762.0,
          1765.0,
          1773.0,
          1767.0,
          1773.0,
          1776.0,
          1777.0,
          1776.0,
          1774.0,
          1772.0,
          1769.0,
          1776.0,
          1778.0,
          1778.0,
          1771.0,
          1775.0,
          1771.0,
          1775.0,
          1777.0,
          1779.0,
          1776.0,
          1776.0,
          1776.0,
          1764.0,
          1755.0,
          1757.0,
          1750.0,
          1761.0,
          1756.0,
          1753.0,
          1752.0,
          1766.0,
          1767.0,
          1769.0,
          1782.0,
          1779.0,
          1775.0,
          1775.0,
          1769.0,
          1785.0,
          1768.0,
          1775.0,
          1780.0,
          1770.0,
          1749.0,
          1767.0,
          1752.0,
          1765.0,
          1779.0,
          1780.0,
          1765.0,
          1775.0,
          1775.0,
          1780.0,
          1774.0,
          1774.0,
          1767.0,
          1768.0,
          1769.0,
          1772.0,
          1779.0
        ]
      },
      "slices": {}
    }
  },
  "dummy_trs": 0,
  "dvars_nstd": 52.74634134765626,
  "dvars_std": 1.2764668454687502,
  "dvars_vstd": 1.0697393696093753,
  "efc": 0.6091007966623728,
  "fber": 1519.9456787109375,
  "fd_mean": 1.1559419260054518,
  "fd_num": 123,
  "fd_perc": 95.34883720930233,
  "fwhm_avg": 1.6347929366438259,
  "fwhm_x": 1.5265466666666667,
  "fwhm_y": 1.8516533333333334,
  "fwhm_z": 1.5261788099314777,
  "gcor": 0.0314309,
  "gsr_x": -0.005231048911809921,
  "gsr_y": 0.03799489140510559,
  "provenance": {
    "md5sum": "38aebc37c50a77a991257348a8a104f9",
    "settings": {
      "fd_thres": 0.2,
      "testing": false
    },
    "software": "mriqc",
    "version": "22.0.1",
    "webapi_port": null,
    "webapi_url": "https://mriqc.nimh.nih.gov/api/v1"
  },
  "size_t": 129,
  "size_x": 64,
  "size_y": 64,
  "size_z": 34,
  "snr": 7.602679319322284,
  "spacing_tr": 2.3399999141693115,
  "spacing_x": 3.0,
  "spacing_y": 3.0,
  "spacing_z": 3.299999952316284,
  "summary_bg_k": 45.976340756430886,
  "summary_bg_mad": 10.194326794597766,
  "summary_bg_mean": 37.1337776184082,
  "summary_bg_median": 23.542634963989258,
  "summary_bg_n": 65194.0,
  "summary_bg_p05": 13.465116500854492,
  "summary_bg_p95": 96.48604736328123,
  "summary_bg_stdv": 46.88603973388672,
  "summary_fg_k": 3.683069150557319,
  "summary_fg_mad": 116.82668395776018,
  "summary_fg_mean": 953.3876342773438,
  "summary_fg_median": 949.4185791015625,
  "summary_fg_n": 39893.0,
  "summary_fg_p05": 776.9736450195312,
  "summary_fg_p95": 1141.9952880859375,
  "summary_fg_stdv": 124.8779067993164,
  "tsnr": 35.351925052236766
}