{
  "aor": 0.011085615384615383,
  "aqi": 0.01314563,
  "bids_meta": {
    "AcquisitionMatrixPE": 64,
    "AcquisitionNumber": 1,
    "AcquisitionTime": "09:03:54.217500",
    "BandwidthPerPixelPhaseEncode": 24.038,
    "BaseResolution": 64,
    "BodyPartExamined": "HEAD",
    "CoilString": "HE1-4;NE1_2",
    "ConsistencyInfo": "N4_VD13A_LATEST_20120616",
    "ConversionSoftware": "dcm2niix",
    "ConversionSoftwareVersion": "v1.0.20181125  GCC6.3.0",
    "DerivedVendorReportedEchoSpacing": 0.000650012,
    "DeviceSerialNumber": "45250",
    "DwellTime": 4.6e-06,
    "EchoTime": 0.033,
    "EchoTrainLength": 64,
    "EffectiveEchoSpacing": 0.000650012,
    "FlipAngle": 90,
    "ImageOrientationPatientDICOM": [
      0.994609,
      -0.0667347,
      -0.0793699,
      0.0260448,
      0.901631,
      -0.431722
    ],
    "ImageType": [
      "ORIGINAL",
      "PRIMARY",
      "M",
      "ND",
      "NORM",
      "MOSAIC"
    ],
    "ImagingFrequency": 123.214,
    "InPlanePhaseEncodingDirectionDICOM": "COL",
    "InstitutionAddress": "Kopernikusstr._26_Graz_Graz_AT_8010",
    "InstitutionName": "KFU",
    "InstitutionalDepartmentName": "Department",
    "MRAcquisitionType": "2D",
    "MagneticFieldStrength": 3,
    "Manufacturer": "Siemens",
    "ManufacturersModelName": "Skyra",
    "Modality": "MR",
    "PartialFourier": 1,
    "PatientPosition": "HFS",
    "PercentPhaseFOV": 100,
    "PhaseEncodingDirection": "j-",
    "PhaseEncodingSteps": 64,
    "PhaseResolution": 1,
    "PixelBandwidth": 1700,
    "ProcedureStepDescription": "KFU_Entw-Psy",
    "ProtocolName": "fMRI_2",
    "PulseSequenceDetails": "%SiemensSeq%_ep2d_pace",
    "ReceiveCoilActiveElements": "HE1-4;NE1,2",
    "ReceiveCoilName": "HeadNeck_20",
    "ReconMatrixPE": 64,
    "RepetitionTime": 2.34,
    "SAR": 0.158948,
    "ScanOptions": "FS",
    "ScanningSequence": "EP",
    "SequenceName": "_epfid2d1_64",
    "SequenceVariant": "SK",
    "SeriesDescription": "fMRI_2",
    "SeriesNumber": 5,
    "ShimSetting": [
      -1600,
      -3594,
      -4458,
      350,
      500,
      -57,
      -63,
      -203
    ],
    "SliceThickness": 3,
    "SliceTiming": [
      2.2525,
      2.1825,
      2.115,
      2.0475,
      1.9775,
      1.91,
      1.8425,
      1.775,
      1.705,
      1.6375,
      1.57,
      1.5,
      1.4325,
      1.365,
      1.295,
      1.2275,
      1.16,
      1.0925,
      1.0225,
      0.955,
      0.8875,
      0.8175,
      0.75,
      0.6825,
      0.615,
      0.545,
      0.4775,
      0.41,
      0.34,
      0.2725,
      0.205,
      0.1375,
      0.0675,
      0
    ],
    "SoftwareVersions": "syngo_MR_D13",
    "SpacingBetweenSlices": 3.3,
    "StationName": "FBMTMR1",
    "TaskName": "read",
    "TotalReadoutTime": 0.0409508,
    "TxRefAmp": 400.434,
    "dataset": "ds003126",
    "dcmmeta_affine": [
      [
        -2.9838266372680664,
        0.07813427597284317,
        -0.3312315344810486,
        89.87141418457031
      ],
      [
        0.20020416378974915,
        2.704892158508301,
        -1.410179615020752,
        -105.0697250366211
      ],
      [
        -0.2381097674369812,
        1.2951654195785522,
        2.965076446533203,
        -55.03969955444336
      ],
      [
        0.0,
        0.0,
        0.0,
        1.0
      ]
    ],
    "dcmmeta_reorient_transform": [
      [
        0.0,
        -1.0,
        0.0,
        63.0
      ],
      [
        1.0,
        0.0,
        0.0,
        0.0
      ],
      [
        0.0,
        0.0,
        1.0,
        0.0
      ],
      [
        0.0,
        0.0,
        0.0,
        1.0
      ]
    ],
    "dcmmeta_shape": [
      64,
      64,
      34,
      130
    ],
    "dcmmeta_slice_dim": 2,
    "dcmmeta_version": 0.6,
    "global": {
      "const": {
        "AcquisitionMatrix": [
          64,
          0,
          0,
          64
        ],
        "AngioFlag": "N",
        "BitsAllocated": 16,
        "BitsStored": 12,
        "BodyPartExamined": "HEAD",
        "Columns": 384,
        "EchoNumbers": 1,
        "EchoTime": 33.0,
        "EchoTrainLength": 64,
        "FlipAngle": 90.0,
        "HighBit": 11,
        "ImageOrientationPatient": [
          0.9946089141615,
          -0.0667347202295,
          -0.0793699249487,
          0.02604475806278,
          0.9016307277548,
          -0.4317217869714
        ],
        "ImagePositionPatient": [
          -584.70763475761,
          -466.08856736031,
          271.87974136445
        ],
        "ImageType": [
          "ORIGINAL",
          "PRIMARY",
          "M",
          "ND",
          "NORM",
          "MOSAIC"
        ],
        "ImagedNucleus": "1H",
        "ImagingFrequency": 123.214308,
        "InPlanePhaseEncodingDirection": "COL",
        "MRAcquisitionType": "2D",
        "MagneticFieldStrength": 3.0,
        "Manufacturer": "SIEMENS",
        "ManufacturerModelName": "Skyra",
        "Modality": "MR",
        "NumberOfAverages": 1.0,
        "NumberOfPhaseEncodingSteps": 64,
        "PercentPhaseFieldOfView": 100.0,
        "PercentSampling": 100.0,
        "PerformedProcedureStepStartTime": "085535.940000",
        "PhotometricInterpretation": "MONOCHROME2",
        "PixelBandwidth": 1700.0,
        "PixelRepresentation": 0,
        "PixelSpacing": [
          3.0,
          3.0
        ],
        "ProtocolName": "fMRI_2",
        "RepetitionTime": 2340.0,
        "Rows": 384,
        "SAR": 0.15894764716821,
        "SamplesPerPixel": 1,
        "ScanOptions": "FS",
        "ScanningSequence": "EP",
        "SequenceName": "*epfid2d1_64",
        "SequenceVariant": "SK",
        "SeriesDescription": "fMRI_2",
        "SeriesNumber": 5,
        "SeriesTime": "090450.501000",
        "SliceLocation": -13.575145224208,
        "SliceThickness": 3.0,
        "SmallestImagePixelValue": 0,
        "SoftwareVersions": "syngo MR D13",
        "SpacingBetweenSlices": 3.2999999538174,
        "SpecificCharacterSet": "ISO_IR 100",
        "StudyID": "1",
        "StudyTime": "085535.886000",
        "TransmitCoilName": "Body",
        "VariableFlipAngleFlag": "N",
        "WindowCenterWidthExplanation": "Algo1",
        "dBdt": 0.0
      },
      "slices": {}
    },
    "modality": "bold",
    "run_id": 2,
    "session_id": "2",
    "subject_id": "047EPKL014043",
    "task_id": "read",
    "time": {
      "samples": {
        "AcquisitionNumber": [
          1,
          2,
          3,
          4,
          5,
          6,
          7,
          8,
          9,
          10,
          11,
          12,
          13,
          14,
          15,
          16,
          17,
          18,
          19,
          20,
          21,
          22,
          23,
          24,
          25,
          26,
          27,
          28,
          29,
          30,
          31,
          32,
          33,
          34,
          35,
          36,
          37,
          38,
          39,
          40,
          41,
          42,
          43,
          44,
          45,
          46,
          47,
          48,
          49,
          50,
          51,
          52,
          53,
          54,
          55,
          56,
          57,
          58,
          59,
          60,
          61,
          62,
          63,
          64,
          65,
          66,
          67,
          68,
          69,
          70,
          71,
          72,
          73,
          74,
          75,
          76,
          77,
          78,
          79,
          80,
          81,
          82,
          83,
          84,
          85,
          86,
          87,
          88,
          89,
          90,
          91,
          92,
          93,
          94,
          95,
          96,
          97,
          98,
          99,
          100,
          101,
          102,
          103,
          104,
          105,
          106,
          107,
          108,
          109,
          110,
          111,
          112,
          113,
          114,
          115,
          116,
          117,
          118,
          119,
          120,
          121,
          122,
          123,
          124,
          125,
          126,
          127,
          128,
          129,
          130
        ],
        "AcquisitionTime": [
          "090354.217500",
          "090356.557500",
          "090358.897500",
          "090401.237500",
          "090403.577500",
          "090405.917500",
          "090408.257500",
          "090410.597500",
          "090412.937500",
          "090415.277500",
          "090417.617500",
          "090419.957500",
          "090422.297500",
          "090424.637500",
          "090426.977500",
          "090429.317500",
          "090431.657500",
          "090433.997500",
          "090436.337500",
          "090438.677500",
          "090441.017500",
          "090443.357500",
          "090445.697500",
          "090448.037500",
          "090450.377500",
          "090452.717500",
          "090455.057500",
          "090457.397500",
          "090459.737500",
          "090502.077500",
          "090504.417500",
          "090506.757500",
          "090509.097500",
          "090511.437500",
          "090513.777500",
          "090516.117500",
          "090518.457500",
          "090520.797500",
          "090523.137500",
          "090525.477500",
          "090527.817500",
          "090530.157500",
          "090532.497500",
          "090534.837500",
          "090537.177500",
          "090539.517500",
          "090541.857500",
          "090544.197500",
          "090546.537500",
          "090548.877500",
          "090551.217500",
          "090553.557500",
          "090555.897500",
          "090558.237500",
          "090600.577500",
          "090602.917500",
          "090605.257500",
          "090607.597500",
          "090609.937500",
          "090612.277500",
          "090614.617500",
          "090616.957500",
          "090619.297500",
          "090621.637500",
          "090623.977500",
          "090626.317500",
          "090628.657500",
          "090630.997500",
          "090633.337500",
          "090635.677500",
          "090638.017500",
          "090640.357500",
          "090642.697500",
          "090645.037500",
          "090647.377500",
          "090649.717500",
          "090652.057500",
          "090654.397500",
          "090656.737500",
          "090659.077500",
          "090701.417500",
          "090703.757500",
          "090706.097500",
          "090708.437500",
          "090710.777500",
          "090713.117500",
          "090715.457500",
          "090717.797500",
          "090720.137500",
          "090722.477500",
          "090724.817500",
          "090727.157500",
          "090729.497500",
          "090731.837500",
          "090734.177500",
          "090736.517500",
          "090738.857500",
          "090741.197500",
          "090743.537500",
          "090745.877500",
          "090748.217500",
          "090750.557500",
          "090752.897500",
          "090755.237500",
          "090757.577500",
          "090759.917500",
          "090802.257500",
          "090804.597500",
          "090806.937500",
          "090809.277500",
          "090811.617500",
          "090813.957500",
          "090816.297500",
          "090818.637500",
          "090820.977500",
          "090823.317500",
          "090825.657500",
          "090827.997500",
          "090830.337500",
          "090832.677500",
          "090835.017500",
          "090837.357500",
          "090839.697500",
          "090842.037500",
          "090844.377500",
          "090846.717500",
          "090849.057500",
          "090851.397500",
          "090853.737500",
          "090856.077500"
        ],
        "ContentTime": [
          "090450.505000",
          "090450.512000",
          "090450.515000",
          "090450.517000",
          "090450.520000",
          "090450.529000",
          "090450.531000",
          "090450.534000",
          "090450.537000",
          "090450.540000",
          "090450.543000",
          "090450.545000",
          "090450.548000",
          "090450.550000",
          "090450.553000",
          "090450.556000",
          "090450.558000",
          "090450.561000",
          "090450.563000",
          "090450.566000",
          "090450.569000",
          "090450.572000",
          "090450.574000",
          "090450.577000",
          "090550.498000",
          "090550.502000",
          "090550.505000",
          "090550.508000",
          "090550.510000",
          "090550.513000",
          "090550.516000",
          "090550.519000",
          "090550.522000",
          "090550.525000",
          "090550.528000",
          "090550.530000",
          "090550.533000",
          "090550.536000",
          "090550.539000",
          "090550.542000",
          "090550.545000",
          "090550.547000",
          "090550.550000",
          "090550.553000",
          "090550.556000",
          "090550.559000",
          "090550.562000",
          "090550.564000",
          "090550.567000",
          "090550.577000",
          "090650.499000",
          "090650.503000",
          "090650.506000",
          "090650.509000",
          "090650.512000",
          "090650.515000",
          "090650.517000",
          "090650.520000",
          "090650.523000",
          "090650.526000",
          "090650.529000",
          "090650.532000",
          "090650.535000",
          "090650.538000",
          "090650.541000",
          "090650.544000",
          "090650.547000",
          "090650.550000",
          "090650.552000",
          "090650.555000",
          "090650.558000",
          "090650.561000",
          "090650.564000",
          "090650.567000",
          "090650.570000",
          "090650.573000",
          "090750.497000",
          "090750.500000",
          "090750.503000",
          "090750.505000",
          "090750.508000",
          "090750.511000",
          "090750.514000",
          "090750.516000",
          "090750.519000",
          "090750.521000",
          "090750.524000",
          "090750.527000",
          "090750.529000",
          "090750.532000",
          "090750.535000",
          "090750.538000",
          "090750.540000",
          "090750.549000",
          "090750.552000",
          "090750.555000",
          "090750.558000",
          "090750.560000",
          "090750.563000",
          "090750.566000",
          "090750.568000",
          "090850.499000",
          "090850.503000",
          "090850.506000",
          "090850.508000",
          "090850.511000",
          "090850.514000",
          "090850.517000",
          "090850.520000",
          "090850.523000",
          "090850.526000",
          "090850.528000",
          "090850.531000",
          "090850.534000",
          "090850.537000",
          "090850.540000",
          "090850.543000",
          "090850.546000",
          "090850.549000",
          "090850.552000",
          "090850.554000",
          "090850.557000",
          "090850.560000",
          "090850.562000",
          "090850.565000",
          "090850.568000",
          "090850.570000",
          "090856.669000",
          "090856.682000",
          "090856.686000"
        ],
        "InstanceCreationTime": [
          "090450.505000",
          "090450.512000",
          "090450.515000",
          "090450.517000",
          "090450.520000",
          "090450.529000",
          "090450.531000",
          "090450.534000",
          "090450.537000",
          "090450.540000",
          "090450.543000",
          "090450.545000",
          "090450.548000",
          "090450.550000",
          "090450.553000",
          "090450.556000",
          "090450.558000",
          "090450.561000",
          "090450.563000",
          "090450.566000",
          "090450.569000",
          "090450.572000",
          "090450.574000",
          "090450.577000",
          "090550.498000",
          "090550.502000",
          "090550.505000",
          "090550.508000",
          "090550.510000",
          "090550.513000",
          "090550.516000",
          "090550.519000",
          "090550.522000",
          "090550.525000",
          "090550.528000",
          "090550.530000",
          "090550.533000",
          "090550.536000",
          "090550.539000",
          "090550.542000",
          "090550.545000",
          "090550.547000",
          "090550.550000",
          "090550.553000",
          "090550.556000",
          "090550.559000",
          "090550.562000",
          "090550.564000",
          "090550.567000",
          "090550.577000",
          "090650.499000",
          "090650.503000",
          "090650.506000",
          "090650.509000",
          "090650.512000",
          "090650.515000",
          "090650.517000",
          "090650.520000",
          "090650.523000",
          "090650.526000",
          "090650.529000",
          "090650.532000",
          "090650.535000",
          "090650.538000",
          "090650.541000",
          "090650.544000",
          "090650.547000",
          "090650.550000",
          "090650.552000",
          "090650.555000",
          "090650.558000",
          "090650.561000",
          "090650.564000",
          "090650.567000",
          "090650.570000",
          "090650.573000",
          "090750.497000",
          "090750.500000",
          "090750.503000",
          "090750.505000",
          "090750.508000",
          "090750.511000",
          "090750.514000",
          "090750.516000",
          "090750.519000",
          "090750.521000",
          "090750.524000",
          "090750.527000",
          "090750.529000",
          "090750.532000",
          "090750.535000",
          "090750.538000",
          "090750.540000",
          "090750.549000",
          "090750.552000",
          "090750.555000",
          "090750.558000",
          "090750.560000",
          "090750.563000",
          "090750.566000",
          "090750.568000",
          "090850.499000",
          "090850.503000",
          "090850.506000",
          "090850.508000",
          "090850.511000",
          "090850.514000",
          "090850.517000",
          "090850.520000",
          "090850.523000",
          "090850.526000",
          "090850.528000",
          "090850.531000",
          "090850.534000",
          "090850.537000",
          "090850.540000",
          "090850.543000",
          "090850.546000",
          "090850.549000",
          "090850.552000",
          "090850.554000",
          "090850.557000",
          "090850.560000",
          "090850.562000",
          "090850.565000",
          "090850.568000",
          "090850.570000",
          "090856.669000",
          "090856.682000",
          "090856.686000"
        ],
        "InstanceNumber": [
          1,
          2,
          3,
          4,
          5,
          6,
          7,
          8,
          9,
          10,
          11,
          12,
          13,
          14,
          15,
          16,
          17,
          18,
          19,
          20,
          21,
          22,
          23,
          24,
          25,
          26,
          27,
          28,
          29,
          30,
          31,
          32,
          33,
          34,
          35,
          36,
          37,
          38,
          39,
          40,
          41,
          42,
          43,
          44,
          45,
          46,
          47,
          48,
          49,
          50,
          51,
          52,
          53,
          54,
          55,
          56,
          57,
          58,
          59,
          60,
          61,
          62,
          63,
          64,
          65,
          66,
          67,
          68,
          69,
          70,
          71,
          72,
          73,
          74,
          75,
          76,
          77,
          78,
          79,
          80,
          81,
          82,
          83,
          84,
          85,
          86,
          87,
          88,
          89,
          90,
          91,
          92,
          93,
          94,
          95,
          96,
          97,
          98,
          99,
          100,
          101,
          102,
          103,
          104,
          105,
          106,
          107,
          108,
          109,
          110,
          111,
          112,
          113,
          114,
          115,
          116,
          117,
          118,
          119,
          120,
          121,
          122,
          123,
          124,
          125,
          126,
          127,
          128,
          129,
          130
        ],
        "LargestImagePixelValue": [
          2005,
          2127,
          2185,
          1785,
          2437,
          2068,
          1741,
          2260,
          2130,
          2494,
          1976,
          1793,
          1706,
          1763,
          1765,
          1869,
          1647,
          1803,
          1873,
          1966,
          2039,
          2013,
          2202,
          1745,
          2044,
          1790,
          1731,
          1670,
          1765,
          1872,
          1739,
          1703,
          1856,
          1867,
          2130,
          2149,
          1729,
          1857,
          2140,
          1995,
          2050,
          1739,
          1779,
          1999,
          2147,
          1851,
          2033,
          1795,
          1929,
          2222,
          1993,
          1777,
          1878,
          2158,
          1971,
          2191,
          2189,
          2225,
          1792,
          1862,
          1704,
          2131,
          2017,
          1980,
          2172,
          1797,
          1915,
          2099,
          1702,
          1983,
          1967,
          1650,
          2102,
          1791,
          1787,
          2081,
          1723,
          1723,
          1834,
          2290,
          1938,
          1991,
          1853,
          1752,
          1831,
          1689,
          1727,
          2321,
          2318,
          1750,
          2308,
          2160,
          1675,
          1759,
          1876,
          1771,
          2032,
          1911,
          2155,
          1799,
          1954,
          1870,
          1656,
          2175,
          2162,
          1709,
          1842,
          1917,
          1707,
          1799,
          1750,
          2211,
          2102,
          1787,
          1774,
          1877,
          1702,
          2195,
          2013,
          2306,
          2140,
          1962,
          1734,
          1694,
          2033,
          1724,
          1805,
          1695,
          1998,
          2119
        ],
        "WindowCenter": [
          776.0,
          775.0,
          774.0,
          772.0,
          776.0,
          772.0,
          773.0,
          770.0,
          770.0,
          771.0,
          762.0,
          764.0,
          763.0,
          767.0,
          770.0,
          774.0,
          771.0,
          777.0,
          776.0,
          777.0,
          777.0,
          776.0,
          773.0,
          773.0,
          772.0,
          771.0,
          770.0,
          772.0,
          775.0,
          775.0,
          775.0,
          774.0,
          776.0,
          776.0,
          776.0,
          775.0,
          773.0,
          775.0,
          777.0,
          777.0,
          776.0,
          775.0,
          774.0,
          778.0,
          778.0,
          776.0,
          778.0,
          776.0,
          777.0,
          777.0,
          774.0,
          776.0,
          775.0,
          777.0,
          773.0,
          775.0,
          774.0,
          773.0,
          772.0,
          776.0,
          775.0,
          777.0,
          775.0,
          773.0,
          772.0,
          769.0,
          770.0,
          770.0,
          768.0,
          772.0,
          772.0,
          771.0,
          772.0,
          770.0,
          770.0,
          773.0,
          773.0,
          774.0,
          776.0,
          778.0,
          775.0,
          776.0,
          776.0,
          776.0,
          776.0,
          776.0,
          777.0,
          779.0,
          777.0,
          775.0,
          776.0,
          773.0,
          774.0,
          776.0,
          777.0,
          778.0,
          779.0,
          778.0,
          778.0,
          778.0,
          778.0,
          777.0,
          776.0,
          779.0,
          778.0,
          778.0,
          779.0,
          779.0,
          777.0,
          779.0,
          779.0,
          781.0,
          779.0,
          777.0,
          777.0,
          780.0,
          780.0,
          782.0,
          780.0,
          782.0,
          778.0,
          775.0,
          774.0,
          776.0,
          778.0,
          777.0,
          779.0,
          780.0,
          782.0,
          781.0
        ],
        "WindowWidth": [
          1645.0,
          1643.0,
          1641.0,
          1635.0,
          1645.0,
          1635.0,
          1636.0,
          1631.0,
          1630.0,
          1632.0,
          1611.0,
          1615.0,
          1614.0,
          1622.0,
          1631.0,
          1639.0,
          1632.0,
          1648.0,
          1647.0,
          1648.0,
          1648.0,
          1648.0,
          1638.0,
          1638.0,
          1635.0,
          1631.0,
          1632.0,
          1636.0,
          1643.0,
          1644.0,
          1642.0,
          1641.0,
          1646.0,
          1646.0,
          1647.0,
          1644.0,
          1639.0,
          1644.0,
          1647.0,
          1647.0,
          1647.0,
          1642.0,
          1640.0,
          1650.0,
          1650.0,
          1646.0,
          1652.0,
          1646.0,
          1648.0,
          1649.0,
          1641.0,
          1644.0,
          1642.0,
          1648.0,
          1639.0,
          1642.0,
          1642.0,
          1638.0,
          1634.0,
          1645.0,
          1643.0,
          1648.0,
          1643.0,
          1638.0,
          1635.0,
          1628.0,
          1630.0,
          1632.0,
          1627.0,
          1636.0,
          1635.0,
          1632.0,
          1638.0,
          1631.0,
          1631.0,
          1640.0,
          1637.0,
          1641.0,
          1646.0,
          1650.0,
          1642.0,
          1648.0,
          1645.0,
          1645.0,
          1646.0,
          1645.0,
          1648.0,
          1655.0,
          1649.0,
          1642.0,
          1646.0,
          1640.0,
          1639.0,
          1646.0,
          1649.0,
          1649.0,
          1653.0,
          1651.0,
          1651.0,
          1650.0,
          1652.0,
          1649.0,
          1646.0,
          1654.0,
          1652.0,
          1650.0,
          1654.0,
          1652.0,
          1648.0,
          1653.0,
          1653.0,
          1659.0,
          1653.0,
          1648.0,
          1650.0,
          1657.0,
          1656.0,
          1662.0,
          1657.0,
          1661.0,
          1651.0,
          1644.0,
          1642.0,
          1646.0,
          1652.0,
          1648.0,
          1653.0,
          1655.0,
          1661.0,
          1660.0
        ]
      },
      "slices": {}
    }
  },
  "dummy_trs": 0,
  "dvars_nstd": 36.898202142170554,
  "dvars_std": 1.3916230477519373,
  "dvars_vstd": 1.1057930614728684,
  "efc": 0.5673748086480613,
  "fber": 1233.0552978515625,
  "fd_mean": 0.5600799883225872,
  "fd_num": 109,
  "fd_perc": 83.84615384615384,
  "fwhm_avg": 1.8423271802624381,
  "fwhm_x": 1.7816033333333332,
  "fwhm_y": 1.9712266666666667,
  "fwhm_z": 1.7741515407873145,
  "gcor": 0.102803,
  "gsr_x": 0.001361226779408753,
  "gsr_y": 0.027492927387356758,
  "provenance": {
    "md5sum": "58ae0527ac3781f595de59303a107130",
    "settings": {
      "fd_thres": 0.2,
      "testing": false
    },
    "software": "mriqc",
    "version": "22.0.1",
    "webapi_port": null,
    "webapi_url": "https://mriqc.nimh.nih.gov/api/v1"
  },
  "size_t": 130,
  "size_x": 64,
  "size_y": 64,
  "size_z": 34,
  "snr": 6.163702047092017,
  "spacing_tr": 2.3399999141693115,
  "spacing_x": 3.0,
  "spacing_y": 3.0,
  "spacing_z": 3.299999952316284,
  "summary_bg_k": 57.83935342530434,
  "summary_bg_mad": 10.891425947526063,
  "summary_bg_mean": 36.73278045654297,
  "summary_bg_median": 24.669231414794922,
  "summary_bg_n": 73625.0,
  "summary_bg_p05": 12.684615135192871,
  "summary_bg_p95": 89.6907684326172,
  "summary_bg_stdv": 49.12805938720703,
  "summary_fg_k": 2.0781359341922494,
  "summary_fg_mad": 129.5566211520719,
  "summary_fg_mean": 881.9676513671875,
  "summary_fg_median": 886.4384765625,
  "summary_fg_n": 33166.0,
  "summary_fg_p05": 652.9346313476562,
  "summary_fg_p95": 1101.1903381347656,
  "summary_fg_stdv": 143.81375122070312,
  "tsnr": 48.361063522752374
}