{
  "aor": 0.004947637795275592,
  "aqi": 0.011605723464566928,
  "bids_meta": {
    "AcquisitionMatrixPE": 64,
    "AcquisitionNumber": 1,
    "AcquisitionTime": "08:57:56.347500",
    "BandwidthPerPixelPhaseEncode": 24.038,
    "BaseResolution": 64,
    "BodyPartExamined": "HEAD",
    "CoilString": "HE1-4;NE1_2",
    "ConsistencyInfo": "N4_VD13A_LATEST_20120616",
    "ConversionSoftware": "dcm2niix",
    "ConversionSoftwareVersion": "v1.0.20181125  GCC6.3.0",
    "DerivedVendorReportedEchoSpacing": 0.000650012,
    "DeviceSerialNumber": "45250",
    "DwellTime": 4.6e-06,
    "EchoTime": 0.033,
    "EchoTrainLength": 64,
    "EffectiveEchoSpacing": 0.000650012,
    "FlipAngle": 90,
    "ImageOrientationPatientDICOM": [
      0.994609,
      -0.0667347,
      -0.0793699,
      0.0260448,
      0.901631,
      -0.431722
    ],
    "ImageType": [
      "ORIGINAL",
      "PRIMARY",
      "M",
      "ND",
      "NORM",
      "MOSAIC"
    ],
    "ImagingFrequency": 123.214,
    "InPlanePhaseEncodingDirectionDICOM": "COL",
    "InstitutionAddress": "Kopernikusstr._26_Graz_Graz_AT_8010",
    "InstitutionName": "KFU",
    "InstitutionalDepartmentName": "Department",
    "MRAcquisitionType": "2D",
    "MagneticFieldStrength": 3,
    "Manufacturer": "Siemens",
    "ManufacturersModelName": "Skyra",
    "Modality": "MR",
    "PartialFourier": 1,
    "PatientPosition": "HFS",
    "PercentPhaseFOV": 100,
    "PhaseEncodingDirection": "j-",
    "PhaseEncodingSteps": 64,
    "PhaseResolution": 1,
    "PixelBandwidth": 1700,
    "ProcedureStepDescription": "KFU_Entw-Psy",
    "ProtocolName": "fMRI_1",
    "PulseSequenceDetails": "%SiemensSeq%_ep2d_pace",
    "ReceiveCoilActiveElements": "HE1-4;NE1,2",
    "ReceiveCoilName": "HeadNeck_20",
    "ReconMatrixPE": 64,
    "RepetitionTime": 2.34,
    "SAR": 0.158948,
    "ScanOptions": "FS",
    "ScanningSequence": "EP",
    "SequenceName": "_epfid2d1_64",
    "SequenceVariant": "SK",
    "SeriesDescription": "fMRI_1",
    "SeriesNumber": 2,
    "ShimSetting": [
      -1600,
      -3594,
      -4458,
      350,
      500,
      -57,
      -63,
      -203
    ],
    "SliceThickness": 3,
    "SliceTiming": [
      2.2525,
      2.185,
      2.115,
      2.0475,
      1.98,
      1.9125,
      1.8425,
      1.775,
      1.7075,
      1.6375,
      1.57,
      1.5025,
      1.4325,
      1.365,
      1.2975,
      1.23,
      1.16,
      1.0925,
      1.025,
      0.955,
      0.8875,
      0.82,
      0.7525,
      0.6825,
      0.615,
      0.5475,
      0.4775,
      0.41,
      0.3425,
      0.275,
      0.205,
      0.1375,
      0.07,
      0
    ],
    "SoftwareVersions": "syngo_MR_D13",
    "SpacingBetweenSlices": 3.3,
    "StationName": "FBMTMR1",
    "TaskName": "read",
    "TotalReadoutTime": 0.0409508,
    "TxRefAmp": 400.434,
    "dataset": "ds003126",
    "dcmmeta_affine": [
      [
        -2.9838266372680664,
        0.07813427597284317,
        -0.3312315344810486,
        89.87141418457031
      ],
      [
        0.20020416378974915,
        2.704892158508301,
        -1.410179615020752,
        -105.0697250366211
      ],
      [
        -0.2381097674369812,
        1.2951654195785522,
        2.965076446533203,
        -55.03969955444336
      ],
      [
        0.0,
        0.0,
        0.0,
        1.0
      ]
    ],
    "dcmmeta_reorient_transform": [
      [
        0.0,
        -1.0,
        0.0,
        63.0
      ],
      [
        1.0,
        0.0,
        0.0,
        0.0
      ],
      [
        0.0,
        0.0,
        1.0,
        0.0
      ],
      [
        0.0,
        0.0,
        0.0,
        1.0
      ]
    ],
    "dcmmeta_shape": [
      64,
      64,
      34,
      127
    ],
    "dcmmeta_slice_dim": 2,
    "dcmmeta_version": 0.6,
    "global": {
      "const": {
        "AcquisitionMatrix": [
          64,
          0,
          0,
          64
        ],
        "AngioFlag": "N",
        "BitsAllocated": 16,
        "BitsStored": 12,
        "BodyPartExamined": "HEAD",
        "Columns": 384,
        "EchoNumbers": 1,
        "EchoTime": 33.0,
        "EchoTrainLength": 64,
        "FlipAngle": 90.0,
        "HighBit": 11,
        "ImageOrientationPatient": [
          0.9946089141615,
          -0.0667347202295,
          -0.0793699249487,
          0.02604475806278,
          0.9016307277548,
          -0.4317217869714
        ],
        "ImagePositionPatient": [
          -584.70763475761,
          -466.08856736031,
          271.87974136445
        ],
        "ImageType": [
          "ORIGINAL",
          "PRIMARY",
          "M",
          "ND",
          "NORM",
          "MOSAIC"
        ],
        "ImagedNucleus": "1H",
        "ImagingFrequency": 123.214301,
        "InPlanePhaseEncodingDirection": "COL",
        "MRAcquisitionType": "2D",
        "MagneticFieldStrength": 3.0,
        "Manufacturer": "SIEMENS",
        "ManufacturerModelName": "Skyra",
        "Modality": "MR",
        "NumberOfAverages": 1.0,
        "NumberOfPhaseEncodingSteps": 64,
        "PercentPhaseFieldOfView": 100.0,
        "PercentSampling": 100.0,
        "PerformedProcedureStepStartTime": "085535.940000",
        "PhotometricInterpretation": "MONOCHROME2",
        "PixelBandwidth": 1700.0,
        "PixelRepresentation": 0,
        "PixelSpacing": [
          3.0,
          3.0
        ],
        "ProtocolName": "fMRI_1",
        "RepetitionTime": 2340.0,
        "Rows": 384,
        "SAR": 0.15894764716821,
        "SamplesPerPixel": 1,
        "ScanOptions": "FS",
        "ScanningSequence": "EP",
        "SequenceName": "*epfid2d1_64",
        "SequenceVariant": "SK",
        "SeriesDescription": "fMRI_1",
        "SeriesNumber": 2,
        "SeriesTime": "085842.581000",
        "SliceLocation": -13.575145224208,
        "SliceThickness": 3.0,
        "SmallestImagePixelValue": 0,
        "SoftwareVersions": "syngo MR D13",
        "SpacingBetweenSlices": 3.2999999538174,
        "SpecificCharacterSet": "ISO_IR 100",
        "StudyID": "1",
        "StudyTime": "085535.886000",
        "TransmitCoilName": "Body",
        "VariableFlipAngleFlag": "N",
        "WindowCenterWidthExplanation": "Algo1",
        "dBdt": 0.0
      },
      "slices": {}
    },
    "modality": "bold",
    "run_id": 1,
    "session_id": "2",
    "subject_id": "047EPKL014043",
    "task_id": "read",
    "time": {
      "samples": {
        "AcquisitionNumber": [
          1,
          2,
          3,
          4,
          5,
          6,
          7,
          8,
          9,
          10,
          11,
          12,
          13,
          14,
          15,
          16,
          17,
          18,
          19,
          20,
          21,
          22,
          23,
          24,
          25,
          26,
          27,
          28,
          29,
          30,
          31,
          32,
          33,
          34,
          35,
          36,
          37,
          38,
          39,
          40,
          41,
          42,
          43,
          44,
          45,
          46,
          47,
          48,
          49,
          50,
          51,
          52,
          53,
          54,
          55,
          56,
          57,
          58,
          59,
          60,
          61,
          62,
          63,
          64,
          65,
          66,
          67,
          68,
          69,
          70,
          71,
          72,
          73,
          74,
          75,
          76,
          77,
          78,
          79,
          80,
          81,
          82,
          83,
          84,
          85,
          86,
          87,
          88,
          89,
          90,
          91,
          92,
          93,
          94,
          95,
          96,
          97,
          98,
          99,
          100,
          101,
          102,
          103,
          104,
          105,
          106,
          107,
          108,
          109,
          110,
          111,
          112,
          113,
          114,
          115,
          116,
          117,
          118,
          119,
          120,
          121,
          122,
          123,
          124,
          125,
          126,
          127
        ],
        "AcquisitionTime": [
          "085756.347500",
          "085758.687500",
          "085801.027500",
          "085803.367500",
          "085805.707500",
          "085808.047500",
          "085810.387500",
          "085812.727500",
          "085815.067500",
          "085817.407500",
          "085819.747500",
          "085822.087500",
          "085824.427500",
          "085826.767500",
          "085829.107500",
          "085831.447500",
          "085833.787500",
          "085836.127500",
          "085838.467500",
          "085840.807500",
          "085843.147500",
          "085845.487500",
          "085847.827500",
          "085850.167500",
          "085852.507500",
          "085854.847500",
          "085857.187500",
          "085859.527500",
          "085901.867500",
          "085904.207500",
          "085906.547500",
          "085908.887500",
          "085911.227500",
          "085913.567500",
          "085915.907500",
          "085918.247500",
          "085920.587500",
          "085922.927500",
          "085925.267500",
          "085927.607500",
          "085929.947500",
          "085932.287500",
          "085934.627500",
          "085936.967500",
          "085939.307500",
          "085941.647500",
          "085943.987500",
          "085946.327500",
          "085948.667500",
          "085951.007500",
          "085953.347500",
          "085955.687500",
          "085958.027500",
          "090000.367500",
          "090002.707500",
          "090005.047500",
          "090007.387500",
          "090009.727500",
          "090012.067500",
          "090014.407500",
          "090016.747500",
          "090019.087500",
          "090021.427500",
          "090023.767500",
          "090026.107500",
          "090028.447500",
          "090030.787500",
          "090033.127500",
          "090035.467500",
          "090037.807500",
          "090040.147500",
          "090042.487500",
          "090044.827500",
          "090047.167500",
          "090049.507500",
          "090051.847500",
          "090054.187500",
          "090056.527500",
          "090058.867500",
          "090101.207500",
          "090103.547500",
          "090105.887500",
          "090108.227500",
          "090110.567500",
          "090112.907500",
          "090115.247500",
          "090117.587500",
          "090119.927500",
          "090122.267500",
          "090124.607500",
          "090126.947500",
          "090129.287500",
          "090131.627500",
          "090133.967500",
          "090136.307500",
          "090138.647500",
          "090140.987500",
          "090143.327500",
          "090145.667500",
          "090148.007500",
          "090150.347500",
          "090152.687500",
          "090155.027500",
          "090157.367500",
          "090159.707500",
          "090202.047500",
          "090204.387500",
          "090206.727500",
          "090209.067500",
          "090211.407500",
          "090213.747500",
          "090216.087500",
          "090218.427500",
          "090220.767500",
          "090223.107500",
          "090225.447500",
          "090227.787500",
          "090230.127500",
          "090232.467500",
          "090234.807500",
          "090237.147500",
          "090239.487500",
          "090241.827500",
          "090244.167500",
          "090246.507500",
          "090248.847500",
          "090251.187500"
        ],
        "ContentTime": [
          "085842.586000",
          "085842.589000",
          "085842.592000",
          "085842.599000",
          "085842.602000",
          "085842.607000",
          "085842.609000",
          "085842.612000",
          "085842.620000",
          "085842.623000",
          "085842.626000",
          "085842.629000",
          "085842.632000",
          "085842.635000",
          "085842.637000",
          "085842.640000",
          "085842.643000",
          "085842.646000",
          "085842.649000",
          "085842.652000",
          "085942.578000",
          "085942.581000",
          "085942.584000",
          "085942.587000",
          "085942.590000",
          "085942.592000",
          "085942.595000",
          "085942.598000",
          "085942.600000",
          "085942.603000",
          "085942.606000",
          "085942.609000",
          "085942.612000",
          "085942.615000",
          "085942.617000",
          "085942.620000",
          "085942.623000",
          "085942.626000",
          "085942.629000",
          "085942.632000",
          "085942.635000",
          "085942.638000",
          "085942.640000",
          "085942.643000",
          "085942.646000",
          "085942.649000",
          "090042.580000",
          "090042.583000",
          "090042.585000",
          "090042.588000",
          "090042.591000",
          "090042.593000",
          "090042.596000",
          "090042.599000",
          "090042.601000",
          "090042.604000",
          "090042.606000",
          "090042.609000",
          "090042.612000",
          "090042.614000",
          "090042.617000",
          "090042.619000",
          "090042.622000",
          "090042.625000",
          "090042.627000",
          "090042.630000",
          "090042.632000",
          "090042.635000",
          "090042.638000",
          "090042.640000",
          "090042.643000",
          "090142.579000",
          "090142.582000",
          "090142.585000",
          "090142.588000",
          "090142.590000",
          "090142.593000",
          "090142.596000",
          "090142.599000",
          "090142.602000",
          "090142.604000",
          "090142.614000",
          "090142.617000",
          "090142.619000",
          "090142.622000",
          "090142.625000",
          "090142.628000",
          "090142.631000",
          "090142.634000",
          "090142.637000",
          "090142.640000",
          "090142.643000",
          "090142.645000",
          "090142.648000",
          "090142.651000",
          "090142.653000",
          "090142.656000",
          "090242.578000",
          "090242.581000",
          "090242.584000",
          "090242.587000",
          "090242.590000",
          "090242.593000",
          "090242.596000",
          "090242.599000",
          "090242.601000",
          "090242.604000",
          "090242.607000",
          "090242.610000",
          "090242.613000",
          "090242.616000",
          "090242.618000",
          "090242.621000",
          "090242.624000",
          "090242.627000",
          "090242.630000",
          "090242.633000",
          "090242.636000",
          "090242.639000",
          "090242.642000",
          "090242.644000",
          "090242.647000",
          "090242.650000",
          "090253.321000",
          "090253.325000",
          "090253.329000",
          "090253.333000"
        ],
        "InstanceCreationTime": [
          "085842.586000",
          "085842.589000",
          "085842.592000",
          "085842.599000",
          "085842.602000",
          "085842.607000",
          "085842.609000",
          "085842.612000",
          "085842.620000",
          "085842.623000",
          "085842.626000",
          "085842.629000",
          "085842.632000",
          "085842.635000",
          "085842.637000",
          "085842.640000",
          "085842.643000",
          "085842.646000",
          "085842.649000",
          "085842.652000",
          "085942.578000",
          "085942.581000",
          "085942.584000",
          "085942.587000",
          "085942.590000",
          "085942.592000",
          "085942.595000",
          "085942.598000",
          "085942.600000",
          "085942.603000",
          "085942.606000",
          "085942.609000",
          "085942.612000",
          "085942.615000",
          "085942.617000",
          "085942.620000",
          "085942.623000",
          "085942.626000",
          "085942.629000",
          "085942.632000",
          "085942.635000",
          "085942.638000",
          "085942.640000",
          "085942.643000",
          "085942.646000",
          "085942.649000",
          "090042.580000",
          "090042.583000",
          "090042.585000",
          "090042.588000",
          "090042.591000",
          "090042.593000",
          "090042.596000",
          "090042.599000",
          "090042.601000",
          "090042.604000",
          "090042.606000",
          "090042.609000",
          "090042.612000",
          "090042.614000",
          "090042.617000",
          "090042.619000",
          "090042.622000",
          "090042.625000",
          "090042.627000",
          "090042.630000",
          "090042.632000",
          "090042.635000",
          "090042.638000",
          "090042.640000",
          "090042.643000",
          "090142.579000",
          "090142.582000",
          "090142.585000",
          "090142.588000",
          "090142.590000",
          "090142.593000",
          "090142.596000",
          "090142.599000",
          "090142.602000",
          "090142.604000",
          "090142.614000",
          "090142.617000",
          "090142.619000",
          "090142.622000",
          "090142.625000",
          "090142.628000",
          "090142.631000",
          "090142.634000",
          "090142.637000",
          "090142.640000",
          "090142.643000",
          "090142.645000",
          "090142.648000",
          "090142.651000",
          "090142.653000",
          "090142.656000",
          "090242.578000",
          "090242.581000",
          "090242.584000",
          "090242.587000",
          "090242.590000",
          "090242.593000",
          "090242.596000",
          "090242.599000",
          "090242.601000",
          "090242.604000",
          "090242.607000",
          "090242.610000",
          "090242.613000",
          "090242.616000",
          "090242.618000",
          "090242.621000",
          "090242.624000",
          "090242.627000",
          "090242.630000",
          "090242.633000",
          "090242.636000",
          "090242.639000",
          "090242.642000",
          "090242.644000",
          "090242.647000",
          "090242.650000",
          "090253.321000",
          "090253.325000",
          "090253.329000",
          "090253.333000"
        ],
        "InstanceNumber": [
          1,
          2,
          3,
          4,
          5,
          6,
          7,
          8,
          9,
          10,
          11,
          12,
          13,
          14,
          15,
          16,
          17,
          18,
          19,
          20,
          21,
          22,
          23,
          24,
          25,
          26,
          27,
          28,
          29,
          30,
          31,
          32,
          33,
          34,
          35,
          36,
          37,
          38,
          39,
          40,
          41,
          42,
          43,
          44,
          45,
          46,
          47,
          48,
          49,
          50,
          51,
          52,
          53,
          54,
          55,
          56,
          57,
          58,
          59,
          60,
          61,
          62,
          63,
          64,
          65,
          66,
          67,
          68,
          69,
          70,
          71,
          72,
          73,
          74,
          75,
          76,
          77,
          78,
          79,
          80,
          81,
          82,
          83,
          84,
          85,
          86,
          87,
          88,
          89,
          90,
          91,
          92,
          93,
          94,
          95,
          96,
          97,
          98,
          99,
          100,
          101,
          102,
          103,
          104,
          105,
          106,
          107,
          108,
          109,
          110,
          111,
          112,
          113,
          114,
          115,
          116,
          117,
          118,
          119,
          120,
          121,
          122,
          123,
          124,
          125,
          126,
          127
        ],
        "LargestImagePixelValue": [
          2956,
          2804,
          2109,
          1917,
          2676,
          2179,
          2529,
          2695,
          1819,
          2132,
          1806,
          1819,
          2608,
          1812,
          1888,
          2543,
          2566,
          1755,
          2168,
          1850,
          1713,
          2084,
          2147,
          1728,
          1883,
          2284,
          1772,
          2720,
          2212,
          1833,
          1738,
          2239,
          2785,
          1815,
          1906,
          1794,
          1768,
          2005,
          1912,
          2172,
          3259,
          2057,
          1910,
          2460,
          1722,
          2493,
          2127,
          1944,
          2077,
          1683,
          1757,
          2624,
          1872,
          1780,
          1812,
          2213,
          1718,
          1856,
          1913,
          2027,
          1820,
          2236,
          1749,
          2006,
          2120,
          2077,
          2486,
          1752,
          2250,
          2074,
          1796,
          1735,
          2136,
          1739,
          2065,
          1735,
          2888,
          2172,
          1741,
          2140,
          1826,
          1829,
          2387,
          1811,
          1754,
          1857,
          1971,
          1766,
          2266,
          2343,
          2052,
          1780,
          2571,
          2837,
          1788,
          1992,
          1857,
          1937,
          2053,
          2409,
          1921,
          1843,
          1898,
          1901,
          1888,
          1859,
          1739,
          2800,
          2026,
          2677,
          2798,
          1933,
          2030,
          1903,
          1951,
          1735,
          1887,
          2494,
          2389,
          2560,
          1740,
          1958,
          2591,
          2459,
          1757,
          1767,
          1777
        ],
        "WindowCenter": [
          779.0,
          777.0,
          777.0,
          776.0,
          777.0,
          776.0,
          775.0,
          776.0,
          774.0,
          776.0,
          775.0,
          778.0,
          777.0,
          777.0,
          776.0,
          776.0,
          775.0,
          773.0,
          775.0,
          775.0,
          775.0,
          779.0,
          777.0,
          777.0,
          775.0,
          778.0,
          776.0,
          779.0,
          775.0,
          776.0,
          775.0,
          777.0,
          778.0,
          777.0,
          777.0,
          777.0,
          776.0,
          778.0,
          778.0,
          777.0,
          778.0,
          776.0,
          777.0,
          779.0,
          777.0,
          781.0,
          778.0,
          779.0,
          776.0,
          777.0,
          776.0,
          782.0,
          777.0,
          777.0,
          779.0,
          779.0,
          779.0,
          779.0,
          779.0,
          778.0,
          777.0,
          780.0,
          778.0,
          780.0,
          779.0,
          778.0,
          778.0,
          776.0,
          778.0,
          777.0,
          777.0,
          777.0,
          779.0,
          778.0,
          780.0,
          779.0,
          780.0,
          779.0,
          777.0,
          781.0,
          778.0,
          777.0,
          777.0,
          777.0,
          775.0,
          779.0,
          780.0,
          780.0,
          784.0,
          781.0,
          779.0,
          780.0,
          783.0,
          782.0,
          779.0,
          780.0,
          781.0,
          781.0,
          782.0,
          780.0,
          778.0,
          780.0,
          780.0,
          780.0,
          781.0,
          780.0,
          783.0,
          787.0,
          782.0,
          781.0,
          781.0,
          776.0,
          776.0,
          778.0,
          778.0,
          779.0,
          783.0,
          784.0,
          783.0,
          780.0,
          778.0,
          782.0,
          780.0,
          776.0,
          776.0,
          777.0,
          781.0
        ],
        "WindowWidth": [
          1657.0,
          1651.0,
          1650.0,
          1647.0,
          1652.0,
          1647.0,
          1645.0,
          1650.0,
          1645.0,
          1647.0,
          1645.0,
          1653.0,
          1652.0,
          1650.0,
          1648.0,
          1648.0,
          1647.0,
          1641.0,
          1647.0,
          1647.0,
          1646.0,
          1655.0,
          1651.0,
          1650.0,
          1645.0,
          1654.0,
          1648.0,
          1658.0,
          1648.0,
          1648.0,
          1646.0,
          1651.0,
          1655.0,
          1652.0,
          1649.0,
          1650.0,
          1649.0,
          1652.0,
          1653.0,
          1651.0,
          1654.0,
          1649.0,
          1651.0,
          1656.0,
          1650.0,
          1661.0,
          1654.0,
          1654.0,
          1647.0,
          1650.0,
          1648.0,
          1666.0,
          1652.0,
          1651.0,
          1655.0,
          1658.0,
          1654.0,
          1656.0,
          1657.0,
          1654.0,
          1652.0,
          1659.0,
          1652.0,
          1658.0,
          1658.0,
          1654.0,
          1653.0,
          1648.0,
          1653.0,
          1651.0,
          1651.0,
          1652.0,
          1656.0,
          1653.0,
          1659.0,
          1656.0,
          1659.0,
          1657.0,
          1651.0,
          1660.0,
          1653.0,
          1649.0,
          1651.0,
          1652.0,
          1646.0,
          1657.0,
          1658.0,
          1659.0,
          1668.0,
          1662.0,
          1657.0,
          1659.0,
          1667.0,
          1665.0,
          1655.0,
          1659.0,
          1660.0,
          1662.0,
          1663.0,
          1660.0,
          1652.0,
          1658.0,
          1659.0,
          1660.0,
          1662.0,
          1656.0,
          1664.0,
          1679.0,
          1664.0,
          1662.0,
          1661.0,
          1647.0,
          1649.0,
          1653.0,
          1654.0,
          1657.0,
          1666.0,
          1669.0,
          1666.0,
          1658.0,
          1653.0,
          1662.0,
          1659.0,
          1650.0,
          1649.0,
          1652.0,
          1662.0
        ]
      },
      "slices": {}
    }
  },
  "dummy_trs": 0,
  "dvars_nstd": 35.934774065238095,
  "dvars_std": 1.3276328402380955,
  "dvars_vstd": 1.0405936142857144,
  "efc": 0.5638107991081684,
  "fber": 1288.031494140625,
  "fd_mean": 0.49615173011292724,
  "fd_num": 106,
  "fd_perc": 83.46456692913385,
  "fwhm_avg": 1.8299826347221728,
  "fwhm_x": 1.7695133333333333,
  "fwhm_y": 1.96408,
  "fwhm_z": 1.7563545708331854,
  "gcor": 0.0643312,
  "gsr_x": 0.0030645327642560005,
  "gsr_y": 0.027950098738074303,
  "provenance": {
    "md5sum": "166fcc63805be7c009e260c0ab313188",
    "settings": {
      "fd_thres": 0.2,
      "testing": false
    },
    "software": "mriqc",
    "version": "22.0.1",
    "webapi_port": null,
    "webapi_url": "https://mriqc.nimh.nih.gov/api/v1"
  },
  "size_t": 127,
  "size_x": 64,
  "size_y": 64,
  "size_z": 34,
  "snr": 6.281801084700538,
  "spacing_tr": 2.3399999141693115,
  "spacing_x": 3.0,
  "spacing_y": 3.0,
  "spacing_z": 3.299999952316284,
  "summary_bg_k": 58.26507705726375,
  "summary_bg_mad": 10.693414983048143,
  "summary_bg_mean": 35.922401428222656,
  "summary_bg_median": 24.472440719604492,
  "summary_bg_n": 74129.0,
  "summary_bg_p05": 12.61417293548584,
  "summary_bg_p95": 86.52755737304688,
  "summary_bg_stdv": 47.479331970214844,
  "summary_fg_k": 2.214591050697961,
  "summary_fg_mad": 127.91244750649466,
  "summary_fg_mean": 893.550537109375,
  "summary_fg_median": 897.7637939453125,
  "summary_fg_n": 32877.0,
  "summary_fg_p05": 662.6756103515625,
  "summary_fg_p95": 1109.4504150390626,
  "summary_fg_stdv": 142.91285705566406,
  "tsnr": 53.13269003550522
}