{
  "aor": 0.010654961240310075,
  "aqi": 0.01788366496124031,
  "bids_meta": {
    "AcquisitionMatrixPE": 64,
    "AcquisitionNumber": 1,
    "AcquisitionTime": "09:10:11.602500",
    "BandwidthPerPixelPhaseEncode": 24.038,
    "BaseResolution": 64,
    "BodyPartExamined": "HEAD",
    "CoilString": "HE1-4;NE1_2",
    "ConsistencyInfo": "N4_VD13A_LATEST_20120616",
    "ConversionSoftware": "dcm2niix",
    "ConversionSoftwareVersion": "v1.0.20181125  GCC6.3.0",
    "DerivedVendorReportedEchoSpacing": 0.000650012,
    "DeviceSerialNumber": "45250",
    "DwellTime": 4.6e-06,
    "EchoTime": 0.033,
    "EchoTrainLength": 64,
    "EffectiveEchoSpacing": 0.000650012,
    "FlipAngle": 90,
    "ImageOrientationPatientDICOM": [
      0.994609,
      -0.0667347,
      -0.0793699,
      0.0260448,
      0.901631,
      -0.431722
    ],
    "ImageType": [
      "ORIGINAL",
      "PRIMARY",
      "M",
      "ND",
      "NORM",
      "MOSAIC"
    ],
    "ImagingFrequency": 123.214,
    "InPlanePhaseEncodingDirectionDICOM": "COL",
    "InstitutionAddress": "Kopernikusstr._26_Graz_Graz_AT_8010",
    "InstitutionName": "KFU",
    "InstitutionalDepartmentName": "Department",
    "MRAcquisitionType": "2D",
    "MagneticFieldStrength": 3,
    "Manufacturer": "Siemens",
    "ManufacturersModelName": "Skyra",
    "Modality": "MR",
    "PartialFourier": 1,
    "PatientPosition": "HFS",
    "PercentPhaseFOV": 100,
    "PhaseEncodingDirection": "j-",
    "PhaseEncodingSteps": 64,
    "PhaseResolution": 1,
    "PixelBandwidth": 1700,
    "ProcedureStepDescription": "KFU_Entw-Psy",
    "ProtocolName": "fMRI_3",
    "PulseSequenceDetails": "%SiemensSeq%_ep2d_pace",
    "ReceiveCoilActiveElements": "HE1-4;NE1,2",
    "ReceiveCoilName": "HeadNeck_20",
    "ReconMatrixPE": 64,
    "RepetitionTime": 2.34,
    "SAR": 0.158948,
    "ScanOptions": "FS",
    "ScanningSequence": "EP",
    "SequenceName": "_epfid2d1_64",
    "SequenceVariant": "SK",
    "SeriesDescription": "fMRI_3",
    "SeriesNumber": 8,
    "ShimSetting": [
      -1600,
      -3594,
      -4458,
      350,
      500,
      -57,
      -63,
      -203
    ],
    "SliceThickness": 3,
    "SliceTiming": [
      2.25,
      2.1825,
      2.115,
      2.045,
      1.9775,
      1.91,
      1.84,
      1.7725,
      1.705,
      1.6375,
      1.5675,
      1.5,
      1.4325,
      1.3625,
      1.295,
      1.2275,
      1.16,
      1.09,
      1.0225,
      0.955,
      0.885,
      0.8175,
      0.75,
      0.68,
      0.6125,
      0.545,
      0.4775,
      0.4075,
      0.34,
      0.2725,
      0.2025,
      0.135,
      0.0675,
      0
    ],
    "SoftwareVersions": "syngo_MR_D13",
    "SpacingBetweenSlices": 3.3,
    "StationName": "FBMTMR1",
    "TaskName": "read",
    "TotalReadoutTime": 0.0409508,
    "TxRefAmp": 400.434,
    "dataset": "ds003126",
    "dcmmeta_affine": [
      [
        -2.9838266372680664,
        0.07813427597284317,
        -0.3312315344810486,
        89.87141418457031
      ],
      [
        0.20020416378974915,
        2.704892158508301,
        -1.410179615020752,
        -105.0697250366211
      ],
      [
        -0.2381097674369812,
        1.2951654195785522,
        2.965076446533203,
        -55.03969955444336
      ],
      [
        0.0,
        0.0,
        0.0,
        1.0
      ]
    ],
    "dcmmeta_reorient_transform": [
      [
        0.0,
        -1.0,
        0.0,
        63.0
      ],
      [
        1.0,
        0.0,
        0.0,
        0.0
      ],
      [
        0.0,
        0.0,
        1.0,
        0.0
      ],
      [
        0.0,
        0.0,
        0.0,
        1.0
      ]
    ],
    "dcmmeta_shape": [
      64,
      64,
      34,
      129
    ],
    "dcmmeta_slice_dim": 2,
    "dcmmeta_version": 0.6,
    "global": {
      "const": {
        "AcquisitionMatrix": [
          64,
          0,
          0,
          64
        ],
        "AngioFlag": "N",
        "BitsAllocated": 16,
        "BitsStored": 12,
        "BodyPartExamined": "HEAD",
        "Columns": 384,
        "EchoNumbers": 1,
        "EchoTime": 33.0,
        "EchoTrainLength": 64,
        "FlipAngle": 90.0,
        "HighBit": 11,
        "ImageOrientationPatient": [
          0.9946089141615,
          -0.0667347202295,
          -0.0793699249487,
          0.02604475806278,
          0.9016307277548,
          -0.4317217869714
        ],
        "ImagePositionPatient": [
          -584.70763475761,
          -466.08856736031,
          271.87974136445
        ],
        "ImageType": [
          "ORIGINAL",
          "PRIMARY",
          "M",
          "ND",
          "NORM",
          "MOSAIC"
        ],
        "ImagedNucleus": "1H",
        "ImagingFrequency": 123.21432,
        "InPlanePhaseEncodingDirection": "COL",
        "MRAcquisitionType": "2D",
        "MagneticFieldStrength": 3.0,
        "Manufacturer": "SIEMENS",
        "ManufacturerModelName": "Skyra",
        "Modality": "MR",
        "NumberOfAverages": 1.0,
        "NumberOfPhaseEncodingSteps": 64,
        "PercentPhaseFieldOfView": 100.0,
        "PercentSampling": 100.0,
        "PerformedProcedureStepStartTime": "085535.940000",
        "PhotometricInterpretation": "MONOCHROME2",
        "PixelBandwidth": 1700.0,
        "PixelRepresentation": 0,
        "PixelSpacing": [
          3.0,
          3.0
        ],
        "ProtocolName": "fMRI_3",
        "RepetitionTime": 2340.0,
        "Rows": 384,
        "SAR": 0.15894764716821,
        "SamplesPerPixel": 1,
        "ScanOptions": "FS",
        "ScanningSequence": "EP",
        "SequenceName": "*epfid2d1_64",
        "SequenceVariant": "SK",
        "SeriesDescription": "fMRI_3",
        "SeriesNumber": 8,
        "SeriesTime": "091109.210000",
        "SliceLocation": -13.575145224208,
        "SliceThickness": 3.0,
        "SmallestImagePixelValue": 0,
        "SoftwareVersions": "syngo MR D13",
        "SpacingBetweenSlices": 3.2999999538174,
        "SpecificCharacterSet": "ISO_IR 100",
        "StudyID": "1",
        "StudyTime": "085535.886000",
        "TransmitCoilName": "Body",
        "VariableFlipAngleFlag": "N",
        "WindowCenterWidthExplanation": "Algo1",
        "dBdt": 0.0
      },
      "slices": {}
    },
    "modality": "bold",
    "run_id": 3,
    "session_id": "2",
    "subject_id": "047EPKL014043",
    "task_id": "read",
    "time": {
      "samples": {
        "AcquisitionNumber": [
          1,
          2,
          3,
          4,
          5,
          6,
          7,
          8,
          9,
          10,
          11,
          12,
          13,
          14,
          15,
          16,
          17,
          18,
          19,
          20,
          21,
          22,
          23,
          24,
          25,
          26,
          27,
          28,
          29,
          30,
          31,
          32,
          33,
          34,
          35,
          36,
          37,
          38,
          39,
          40,
          41,
          42,
          43,
          44,
          45,
          46,
          47,
          48,
          49,
          50,
          51,
          52,
          53,
          54,
          55,
          56,
          57,
          58,
          59,
          60,
          61,
          62,
          63,
          64,
          65,
          66,
          67,
          68,
          69,
          70,
          71,
          72,
          73,
          74,
          75,
          76,
          77,
          78,
          79,
          80,
          81,
          82,
          83,
          84,
          85,
          86,
          87,
          88,
          89,
          90,
          91,
          92,
          93,
          94,
          95,
          96,
          97,
          98,
          99,
          100,
          101,
          102,
          103,
          104,
          105,
          106,
          107,
          108,
          109,
          110,
          111,
          112,
          113,
          114,
          115,
          116,
          117,
          118,
          119,
          120,
          121,
          122,
          123,
          124,
          125,
          126,
          127,
          128,
          129
        ],
        "AcquisitionTime": [
          "091011.602500",
          "091013.942500",
          "091016.282500",
          "091018.622500",
          "091020.962500",
          "091023.302500",
          "091025.642500",
          "091027.982500",
          "091030.322500",
          "091032.662500",
          "091035.002500",
          "091037.342500",
          "091039.682500",
          "091042.022500",
          "091044.362500",
          "091046.702500",
          "091049.042500",
          "091051.382500",
          "091053.722500",
          "091056.062500",
          "091058.402500",
          "091100.742500",
          "091103.082500",
          "091105.422500",
          "091107.762500",
          "091110.102500",
          "091112.442500",
          "091114.782500",
          "091117.122500",
          "091119.462500",
          "091121.802500",
          "091124.142500",
          "091126.482500",
          "091128.822500",
          "091131.162500",
          "091133.502500",
          "091135.842500",
          "091138.182500",
          "091140.522500",
          "091142.862500",
          "091145.202500",
          "091147.542500",
          "091149.882500",
          "091152.222500",
          "091154.562500",
          "091156.902500",
          "091159.242500",
          "091201.582500",
          "091203.922500",
          "091206.262500",
          "091208.602500",
          "091210.942500",
          "091213.282500",
          "091215.622500",
          "091217.962500",
          "091220.302500",
          "091222.642500",
          "091224.982500",
          "091227.322500",
          "091229.662500",
          "091232.002500",
          "091234.342500",
          "091236.682500",
          "091239.022500",
          "091241.362500",
          "091243.702500",
          "091246.042500",
          "091248.382500",
          "091250.722500",
          "091253.062500",
          "091255.402500",
          "091257.742500",
          "091300.082500",
          "091302.422500",
          "091304.762500",
          "091307.102500",
          "091309.442500",
          "091311.782500",
          "091314.122500",
          "091316.462500",
          "091318.802500",
          "091321.142500",
          "091323.482500",
          "091325.822500",
          "091328.162500",
          "091330.502500",
          "091332.842500",
          "091335.182500",
          "091337.522500",
          "091339.862500",
          "091342.202500",
          "091344.542500",
          "091346.882500",
          "091349.222500",
          "091351.562500",
          "091353.902500",
          "091356.242500",
          "091358.582500",
          "091400.922500",
          "091403.262500",
          "091405.602500",
          "091407.942500",
          "091410.282500",
          "091412.622500",
          "091414.962500",
          "091417.302500",
          "091419.642500",
          "091421.982500",
          "091424.322500",
          "091426.662500",
          "091429.002500",
          "091431.342500",
          "091433.682500",
          "091436.022500",
          "091438.362500",
          "091440.702500",
          "091443.042500",
          "091445.382500",
          "091447.722500",
          "091450.062500",
          "091452.402500",
          "091454.742500",
          "091457.082500",
          "091459.422500",
          "091501.762500",
          "091504.102500",
          "091506.442500",
          "091508.782500",
          "091511.122500"
        ],
        "ContentTime": [
          "091109.215000",
          "091109.219000",
          "091109.222000",
          "091109.224000",
          "091109.227000",
          "091109.230000",
          "091109.240000",
          "091109.243000",
          "091109.245000",
          "091109.248000",
          "091109.251000",
          "091109.253000",
          "091109.256000",
          "091109.258000",
          "091109.261000",
          "091109.264000",
          "091109.266000",
          "091109.269000",
          "091109.271000",
          "091109.274000",
          "091109.277000",
          "091109.280000",
          "091109.282000",
          "091109.285000",
          "091109.287000",
          "091209.209000",
          "091209.212000",
          "091209.214000",
          "091209.217000",
          "091209.221000",
          "091209.225000",
          "091209.228000",
          "091209.230000",
          "091209.233000",
          "091209.236000",
          "091209.239000",
          "091209.242000",
          "091209.245000",
          "091209.248000",
          "091209.251000",
          "091209.259000",
          "091209.262000",
          "091209.264000",
          "091209.267000",
          "091209.270000",
          "091209.273000",
          "091209.276000",
          "091209.279000",
          "091209.281000",
          "091209.284000",
          "091249.208000",
          "091249.211000",
          "091249.214000",
          "091249.217000",
          "091249.220000",
          "091249.223000",
          "091249.226000",
          "091249.229000",
          "091249.231000",
          "091249.234000",
          "091249.237000",
          "091249.239000",
          "091249.242000",
          "091249.245000",
          "091249.248000",
          "091249.251000",
          "091249.254000",
          "091249.257000",
          "091349.209000",
          "091349.212000",
          "091349.214000",
          "091349.217000",
          "091349.220000",
          "091349.222000",
          "091349.225000",
          "091349.227000",
          "091349.230000",
          "091349.233000",
          "091349.235000",
          "091349.238000",
          "091349.241000",
          "091349.244000",
          "091349.247000",
          "091349.254000",
          "091349.257000",
          "091349.260000",
          "091349.263000",
          "091349.266000",
          "091349.269000",
          "091349.272000",
          "091349.275000",
          "091349.277000",
          "091349.280000",
          "091449.208000",
          "091449.211000",
          "091449.214000",
          "091449.217000",
          "091449.220000",
          "091449.222000",
          "091449.225000",
          "091449.228000",
          "091449.231000",
          "091449.234000",
          "091449.237000",
          "091449.239000",
          "091449.242000",
          "091449.245000",
          "091449.248000",
          "091449.251000",
          "091449.254000",
          "091449.257000",
          "091449.259000",
          "091449.262000",
          "091449.265000",
          "091449.268000",
          "091449.271000",
          "091449.274000",
          "091449.277000",
          "091449.279000",
          "091514.034000",
          "091514.037000",
          "091514.040000",
          "091514.043000",
          "091514.046000",
          "091514.049000",
          "091514.052000",
          "091514.056000",
          "091514.059000",
          "091514.062000"
        ],
        "InstanceCreationTime": [
          "091109.215000",
          "091109.219000",
          "091109.222000",
          "091109.224000",
          "091109.227000",
          "091109.230000",
          "091109.240000",
          "091109.243000",
          "091109.245000",
          "091109.248000",
          "091109.251000",
          "091109.253000",
          "091109.256000",
          "091109.258000",
          "091109.261000",
          "091109.264000",
          "091109.266000",
          "091109.269000",
          "091109.271000",
          "091109.274000",
          "091109.277000",
          "091109.280000",
          "091109.282000",
          "091109.285000",
          "091109.287000",
          "091209.209000",
          "091209.212000",
          "091209.214000",
          "091209.217000",
          "091209.221000",
          "091209.225000",
          "091209.228000",
          "091209.230000",
          "091209.233000",
          "091209.236000",
          "091209.239000",
          "091209.242000",
          "091209.245000",
          "091209.248000",
          "091209.251000",
          "091209.259000",
          "091209.262000",
          "091209.264000",
          "091209.267000",
          "091209.270000",
          "091209.273000",
          "091209.276000",
          "091209.279000",
          "091209.281000",
          "091209.284000",
          "091249.208000",
          "091249.211000",
          "091249.214000",
          "091249.217000",
          "091249.220000",
          "091249.223000",
          "091249.226000",
          "091249.229000",
          "091249.231000",
          "091249.234000",
          "091249.237000",
          "091249.239000",
          "091249.242000",
          "091249.245000",
          "091249.248000",
          "091249.251000",
          "091249.254000",
          "091249.257000",
          "091349.209000",
          "091349.212000",
          "091349.214000",
          "091349.217000",
          "091349.220000",
          "091349.222000",
          "091349.225000",
          "091349.227000",
          "091349.230000",
          "091349.233000",
          "091349.235000",
          "091349.238000",
          "091349.241000",
          "091349.244000",
          "091349.247000",
          "091349.254000",
          "091349.257000",
          "091349.260000",
          "091349.263000",
          "091349.266000",
          "091349.269000",
          "091349.272000",
          "091349.275000",
          "091349.277000",
          "091349.280000",
          "091449.208000",
          "091449.211000",
          "091449.214000",
          "091449.217000",
          "091449.220000",
          "091449.222000",
          "091449.225000",
          "091449.228000",
          "091449.231000",
          "091449.234000",
          "091449.237000",
          "091449.239000",
          "091449.242000",
          "091449.245000",
          "091449.248000",
          "091449.251000",
          "091449.254000",
          "091449.257000",
          "091449.259000",
          "091449.262000",
          "091449.265000",
          "091449.268000",
          "091449.271000",
          "091449.274000",
          "091449.277000",
          "091449.279000",
          "091514.034000",
          "091514.037000",
          "091514.040000",
          "091514.043000",
          "091514.046000",
          "091514.049000",
          "091514.052000",
          "091514.056000",
          "091514.059000",
          "091514.062000"
        ],
        "InstanceNumber": [
          1,
          2,
          3,
          4,
          5,
          6,
          7,
          8,
          9,
          10,
          11,
          12,
          13,
          14,
          15,
          16,
          17,
          18,
          19,
          20,
          21,
          22,
          23,
          24,
          25,
          26,
          27,
          28,
          29,
          30,
          31,
          32,
          33,
          34,
          35,
          36,
          37,
          38,
          39,
          40,
          41,
          42,
          43,
          44,
          45,
          46,
          47,
          48,
          49,
          50,
          51,
          52,
          53,
          54,
          55,
          56,
          57,
          58,
          59,
          60,
          61,
          62,
          63,
          64,
          65,
          66,
          67,
          68,
          69,
          70,
          71,
          72,
          73,
          74,
          75,
          76,
          77,
          78,
          79,
          80,
          81,
          82,
          83,
          84,
          85,
          86,
          87,
          88,
          89,
          90,
          91,
          92,
          93,
          94,
          95,
          96,
          97,
          98,
          99,
          100,
          101,
          102,
          103,
          104,
          105,
          106,
          107,
          108,
          109,
          110,
          111,
          112,
          113,
          114,
          115,
          116,
          117,
          118,
          119,
          120,
          121,
          122,
          123,
          124,
          125,
          126,
          127,
          128,
          129
        ],
        "LargestImagePixelValue": [
          1898,
          1874,
          1706,
          1703,
          1823,
          1612,
          2219,
          1851,
          2121,
          1651,
          1704,
          1878,
          1962,
          1784,
          1733,
          2170,
          2279,
          2350,
          1669,
          1707,
          1782,
          1677,
          1731,
          1752,
          1650,
          1665,
          1910,
          1754,
          1685,
          1686,
          1908,
          1670,
          2132,
          1759,
          1947,
          1981,
          1834,
          1674,
          1639,
          1730,
          1725,
          1729,
          2243,
          1760,
          1770,
          1920,
          1728,
          1901,
          1651,
          1708,
          1672,
          1772,
          1803,
          2121,
          1822,
          2135,
          1751,
          1904,
          1665,
          1877,
          1658,
          1937,
          1917,
          1646,
          1768,
          1749,
          1954,
          1776,
          1755,
          1703,
          1740,
          1633,
          1822,
          1995,
          1763,
          1730,
          1670,
          1690,
          2051,
          2343,
          1825,
          1738,
          1749,
          1858,
          1712,
          1699,
          2359,
          2099,
          1803,
          1732,
          1734,
          1736,
          1971,
          2124,
          2023,
          1794,
          1761,
          2472,
          2439,
          1766,
          1784,
          1678,
          1769,
          1817,
          1795,
          2017,
          1889,
          1735,
          1729,
          1783,
          1771,
          1755,
          1746,
          1945,
          1752,
          1758,
          1667,
          1878,
          1984,
          2143,
          1717,
          1921,
          1826,
          1674,
          1630,
          1766,
          1651,
          1749,
          1697
        ],
        "WindowCenter": [
          776.0,
          774.0,
          772.0,
          774.0,
          777.0,
          776.0,
          778.0,
          776.0,
          774.0,
          773.0,
          774.0,
          774.0,
          774.0,
          773.0,
          777.0,
          776.0,
          775.0,
          772.0,
          764.0,
          765.0,
          766.0,
          769.0,
          772.0,
          773.0,
          775.0,
          773.0,
          775.0,
          775.0,
          775.0,
          777.0,
          777.0,
          778.0,
          778.0,
          776.0,
          776.0,
          775.0,
          773.0,
          774.0,
          774.0,
          776.0,
          775.0,
          775.0,
          776.0,
          774.0,
          772.0,
          774.0,
          774.0,
          775.0,
          775.0,
          775.0,
          775.0,
          776.0,
          777.0,
          775.0,
          772.0,
          773.0,
          771.0,
          773.0,
          772.0,
          775.0,
          774.0,
          776.0,
          775.0,
          774.0,
          774.0,
          776.0,
          777.0,
          774.0,
          773.0,
          775.0,
          775.0,
          777.0,
          778.0,
          778.0,
          774.0,
          776.0,
          776.0,
          777.0,
          780.0,
          777.0,
          775.0,
          776.0,
          774.0,
          774.0,
          774.0,
          776.0,
          779.0,
          779.0,
          777.0,
          776.0,
          777.0,
          777.0,
          779.0,
          781.0,
          777.0,
          777.0,
          774.0,
          777.0,
          771.0,
          769.0,
          768.0,
          773.0,
          774.0,
          774.0,
          773.0,
          773.0,
          771.0,
          772.0,
          774.0,
          776.0,
          775.0,
          777.0,
          778.0,
          777.0,
          775.0,
          780.0,
          779.0,
          780.0,
          780.0,
          779.0,
          775.0,
          777.0,
          777.0,
          778.0,
          776.0,
          776.0,
          775.0,
          778.0,
          780.0
        ],
        "WindowWidth": [
          1643.0,
          1638.0,
          1634.0,
          1637.0,
          1646.0,
          1643.0,
          1649.0,
          1642.0,
          1638.0,
          1635.0,
          1637.0,
          1640.0,
          1638.0,
          1636.0,
          1645.0,
          1642.0,
          1641.0,
          1634.0,
          1613.0,
          1617.0,
          1618.0,
          1627.0,
          1633.0,
          1637.0,
          1639.0,
          1635.0,
          1641.0,
          1640.0,
          1639.0,
          1645.0,
          1646.0,
          1647.0,
          1648.0,
          1643.0,
          1642.0,
          1640.0,
          1637.0,
          1638.0,
          1638.0,
          1642.0,
          1640.0,
          1641.0,
          1643.0,
          1638.0,
          1635.0,
          1639.0,
          1638.0,
          1640.0,
          1641.0,
          1640.0,
          1640.0,
          1644.0,
          1644.0,
          1642.0,
          1632.0,
          1636.0,
          1630.0,
          1638.0,
          1634.0,
          1641.0,
          1638.0,
          1642.0,
          1640.0,
          1638.0,
          1638.0,
          1644.0,
          1646.0,
          1637.0,
          1637.0,
          1641.0,
          1640.0,
          1646.0,
          1648.0,
          1649.0,
          1637.0,
          1643.0,
          1644.0,
          1646.0,
          1654.0,
          1646.0,
          1640.0,
          1642.0,
          1638.0,
          1638.0,
          1638.0,
          1643.0,
          1651.0,
          1650.0,
          1648.0,
          1642.0,
          1645.0,
          1645.0,
          1647.0,
          1655.0,
          1645.0,
          1646.0,
          1639.0,
          1646.0,
          1630.0,
          1624.0,
          1622.0,
          1637.0,
          1640.0,
          1637.0,
          1634.0,
          1636.0,
          1633.0,
          1635.0,
          1640.0,
          1645.0,
          1640.0,
          1647.0,
          1648.0,
          1646.0,
          1642.0,
          1653.0,
          1650.0,
          1654.0,
          1655.0,
          1652.0,
          1640.0,
          1646.0,
          1646.0,
          1647.0,
          1644.0,
          1642.0,
          1642.0,
          1647.0,
          1652.0
        ]
      },
      "slices": {}
    }
  },
  "dummy_trs": 0,
  "dvars_nstd": 40.31294089523438,
  "dvars_std": 1.3544137376562502,
  "dvars_vstd": 1.0986767661718755,
  "efc": 0.5702927296071452,
  "fber": 1198.2559814453125,
  "fd_mean": 0.6355490066194945,
  "fd_num": 110,
  "fd_perc": 85.27131782945736,
  "fwhm_avg": 1.8401357660762738,
  "fwhm_x": 1.7742033333333334,
  "fwhm_y": 1.9813433333333332,
  "fwhm_z": 1.7648606315621553,
  "gcor": 0.0457631,
  "gsr_x": -0.0017594719538465142,
  "gsr_y": 0.027319474145770073,
  "provenance": {
    "md5sum": "edc9493f6aac5a1ee31657d3b1b567d2",
    "settings": {
      "fd_thres": 0.2,
      "testing": false
    },
    "software": "mriqc",
    "version": "22.0.1",
    "webapi_port": null,
    "webapi_url": "https://mriqc.nimh.nih.gov/api/v1"
  },
  "size_t": 129,
  "size_x": 64,
  "size_y": 64,
  "size_z": 34,
  "snr": 6.247653573171536,
  "spacing_tr": 2.3399999141693115,
  "spacing_x": 3.0,
  "spacing_y": 3.0,
  "spacing_z": 3.299999952316284,
  "summary_bg_k": 68.70115917256452,
  "summary_bg_mad": 11.113770469305008,
  "summary_bg_mean": 37.15007400512695,
  "summary_bg_median": 24.86821746826172,
  "summary_bg_n": 73187.0,
  "summary_bg_p05": 12.759690284729004,
  "summary_bg_p95": 89.93876113891595,
  "summary_bg_stdv": 50.318485260009766,
  "summary_fg_k": 2.3513104491271735,
  "summary_fg_mad": 127.61871418122189,
  "summary_fg_mean": 879.447509765625,
  "summary_fg_median": 882.248046875,
  "summary_fg_n": 33365.0,
  "summary_fg_p05": 656.49609375,
  "summary_fg_p95": 1093.68837890625,
  "summary_fg_stdv": 141.21058654785156,
  "tsnr": 43.37202710052952
}