{
  "aor": 0.005102170542635659,
  "aqi": 0.015359551085271317,
  "bids_meta": {
    "AcquisitionMatrixPE": 64,
    "AcquisitionNumber": 1,
    "AcquisitionTime": "10:06:37.765000",
    "BandwidthPerPixelPhaseEncode": 24.038,
    "BaseResolution": 64,
    "BodyPartExamined": "HEAD",
    "ConsistencyInfo": "N4_VD13A_LATEST_20120616",
    "ConversionSoftware": "dcm2niix",
    "ConversionSoftwareVersion": "v1.0.20181125  GCC6.3.0",
    "DerivedVendorReportedEchoSpacing": 0.000650012,
    "DeviceSerialNumber": "45250",
    "DwellTime": 4.6e-06,
    "EchoTime": 0.033,
    "EchoTrainLength": 64,
    "EffectiveEchoSpacing": 0.000650012,
    "FlipAngle": 90,
    "ImageOrientationPatientDICOM": [
      0.999901,
      0.00539528,
      -0.0129935,
      -0.00698075,
      0.992101,
      -0.125247
    ],
    "ImageType": [
      "ORIGINAL",
      "PRIMARY",
      "M",
      "ND",
      "NORM",
      "MOSAIC"
    ],
    "ImagingFrequency": 123.214,
    "InPlanePhaseEncodingDirectionDICOM": "COL",
    "InstitutionAddress": "Kopernikusstr._26_Graz_Graz_AT_8010",
    "InstitutionName": "KFU",
    "InstitutionalDepartmentName": "Department",
    "MRAcquisitionType": "2D",
    "MagneticFieldStrength": 3,
    "Manufacturer": "Siemens",
    "ManufacturersModelName": "Skyra",
    "Modality": "MR",
    "PartialFourier": 1,
    "PatientPosition": "HFS",
    "PercentPhaseFOV": 100,
    "PhaseEncodingDirection": "j-",
    "PhaseEncodingSteps": 64,
    "PhaseResolution": 1,
    "PixelBandwidth": 1700,
    "ProcedureStepDescription": "KFU_Entw-Psy",
    "ProtocolName": "fMRI_1",
    "PulseSequenceDetails": "%SiemensSeq%_ep2d_pace",
    "ReceiveCoilActiveElements": "HE1-4",
    "ReceiveCoilName": "HeadNeck_20",
    "ReconMatrixPE": 64,
    "RepetitionTime": 2.34,
    "SAR": 0.181861,
    "ScanOptions": "FS",
    "ScanningSequence": "EP",
    "SequenceName": "_epfid2d1_64",
    "SequenceVariant": "SK",
    "SeriesDescription": "fMRI_1",
    "SeriesNumber": 2,
    "ShimSetting": [
      -1583,
      -3692,
      -4315,
      470,
      392,
      -69,
      196,
      -250
    ],
    "SliceThickness": 3,
    "SliceTiming": [
      2.2525,
      2.185,
      2.115,
      2.0475,
      1.98,
      1.91,
      1.8425,
      1.775,
      1.705,
      1.6375,
      1.57,
      1.5025,
      1.4325,
      1.365,
      1.2975,
      1.2275,
      1.16,
      1.0925,
      1.025,
      0.955,
      0.8875,
      0.82,
      0.75,
      0.6825,
      0.615,
      0.5475,
      0.4775,
      0.41,
      0.3425,
      0.2725,
      0.205,
      0.1375,
      0.0675,
      0
    ],
    "SoftwareVersions": "syngo_MR_D13",
    "SpacingBetweenSlices": 3.3,
    "StationName": "FBMTMR1",
    "TaskName": "read",
    "TotalReadoutTime": 0.0409508,
    "TxRefAmp": 360.964,
    "dataset": "ds003126",
    "dcmmeta_affine": [
      [
        -2.9997031688690186,
        -0.020942240953445435,
        -0.04030996188521385,
        96.89476776123047
      ],
      [
        -0.016185827553272247,
        2.9763031005859375,
        -0.4135730564594269,
        -105.34590148925781
      ],
      [
        -0.038980547338724136,
        0.37574058771133423,
        3.2737338542938232,
        -16.83506965637207
      ],
      [
        0.0,
        0.0,
        0.0,
        1.0
      ]
    ],
    "dcmmeta_reorient_transform": [
      [
        0.0,
        -1.0,
        0.0,
        63.0
      ],
      [
        1.0,
        0.0,
        0.0,
        0.0
      ],
      [
        0.0,
        0.0,
        1.0,
        0.0
      ],
      [
        0.0,
        0.0,
        0.0,
        1.0
      ]
    ],
    "dcmmeta_shape": [
      64,
      64,
      34,
      129
    ],
    "dcmmeta_slice_dim": 2,
    "dcmmeta_version": 0.6,
    "global": {
      "const": {
        "AcquisitionMatrix": [
          64,
          0,
          0,
          64
        ],
        "AngioFlag": "N",
        "BitsAllocated": 16,
        "BitsStored": 12,
        "BodyPartExamined": "HEAD",
        "Columns": 384,
        "EchoNumbers": 1,
        "EchoTime": 33.0,
        "EchoTrainLength": 64,
        "FlipAngle": 90.0,
        "HighBit": 11,
        "ImageOrientationPatient": [
          0.99990102486884,
          0.00539527563359,
          -0.0129935163479,
          -0.0069807466862,
          0.99210104968266,
          -0.125246861814
        ],
        "ImagePositionPatient": [
          -572.177139088,
          -560.95943367513,
          73.191968571095
        ],
        "ImageType": [
          "ORIGINAL",
          "PRIMARY",
          "M",
          "ND",
          "NORM",
          "MOSAIC"
        ],
        "ImagedNucleus": "1H",
        "ImagingFrequency": 123.214142,
        "InPlanePhaseEncodingDirection": "COL",
        "MRAcquisitionType": "2D",
        "MagneticFieldStrength": 3.0,
        "Manufacturer": "SIEMENS",
        "ManufacturerModelName": "Skyra",
        "Modality": "MR",
        "NumberOfAverages": 1.0,
        "NumberOfPhaseEncodingSteps": 64,
        "PercentPhaseFieldOfView": 100.0,
        "PercentSampling": 100.0,
        "PerformedProcedureStepStartTime": "100355.353000",
        "PhotometricInterpretation": "MONOCHROME2",
        "PixelBandwidth": 1700.0,
        "PixelRepresentation": 0,
        "PixelSpacing": [
          3.0,
          3.0
        ],
        "ProtocolName": "fMRI_1",
        "RepetitionTime": 2340.0,
        "Rows": 384,
        "SAR": 0.18186102314535,
        "SamplesPerPixel": 1,
        "ScanOptions": "FS",
        "ScanningSequence": "EP",
        "SequenceName": "*epfid2d1_64",
        "SequenceVariant": "SK",
        "SeriesDescription": "fMRI_1",
        "SeriesNumber": 2,
        "SeriesTime": "100734.978000",
        "SliceLocation": -4.6821616170394,
        "SliceThickness": 3.0,
        "SmallestImagePixelValue": 0,
        "SoftwareVersions": "syngo MR D13",
        "SpacingBetweenSlices": 3.3000000319021,
        "SpecificCharacterSet": "ISO_IR 100",
        "StudyID": "1",
        "StudyTime": "100355.304000",
        "TransmitCoilName": "Body",
        "VariableFlipAngleFlag": "N",
        "WindowCenterWidthExplanation": "Algo1",
        "dBdt": 0.0
      },
      "slices": {}
    },
    "modality": "bold",
    "run_id": 1,
    "session_id": "2",
    "subject_id": "047EPKL014048",
    "task_id": "read",
    "time": {
      "samples": {
        "AcquisitionNumber": [
          1,
          2,
          3,
          4,
          5,
          6,
          7,
          8,
          9,
          10,
          11,
          12,
          13,
          14,
          15,
          16,
          17,
          18,
          19,
          20,
          21,
          22,
          23,
          24,
          25,
          26,
          27,
          28,
          29,
          30,
          31,
          32,
          33,
          34,
          35,
          36,
          37,
          38,
          39,
          40,
          41,
          42,
          43,
          44,
          45,
          46,
          47,
          48,
          49,
          50,
          51,
          52,
          53,
          54,
          55,
          56,
          57,
          58,
          59,
          60,
          61,
          62,
          63,
          64,
          65,
          66,
          67,
          68,
          69,
          70,
          71,
          72,
          73,
          74,
          75,
          76,
          77,
          78,
          79,
          80,
          81,
          82,
          83,
          84,
          85,
          86,
          87,
          88,
          89,
          90,
          91,
          92,
          93,
          94,
          95,
          96,
          97,
          98,
          99,
          100,
          101,
          102,
          103,
          104,
          105,
          106,
          107,
          108,
          109,
          110,
          111,
          112,
          113,
          114,
          115,
          116,
          117,
          118,
          119,
          120,
          121,
          122,
          123,
          124,
          125,
          126,
          127,
          128,
          129
        ],
        "AcquisitionTime": [
          "100637.765000",
          "100640.105000",
          "100642.445000",
          "100644.785000",
          "100647.125000",
          "100649.465000",
          "100651.805000",
          "100654.145000",
          "100656.485000",
          "100658.825000",
          "100701.165000",
          "100703.505000",
          "100705.845000",
          "100708.185000",
          "100710.525000",
          "100712.865000",
          "100715.205000",
          "100717.545000",
          "100719.885000",
          "100722.225000",
          "100724.565000",
          "100726.905000",
          "100729.245000",
          "100731.585000",
          "100733.925000",
          "100736.265000",
          "100738.605000",
          "100740.945000",
          "100743.285000",
          "100745.625000",
          "100747.965000",
          "100750.305000",
          "100752.645000",
          "100754.985000",
          "100757.325000",
          "100759.665000",
          "100802.005000",
          "100804.345000",
          "100806.685000",
          "100809.025000",
          "100811.365000",
          "100813.705000",
          "100816.045000",
          "100818.385000",
          "100820.725000",
          "100823.065000",
          "100825.405000",
          "100827.745000",
          "100830.085000",
          "100832.425000",
          "100834.765000",
          "100837.105000",
          "100839.445000",
          "100841.785000",
          "100844.125000",
          "100846.465000",
          "100848.805000",
          "100851.145000",
          "100853.485000",
          "100855.825000",
          "100858.165000",
          "100900.505000",
          "100902.845000",
          "100905.185000",
          "100907.525000",
          "100909.865000",
          "100912.205000",
          "100914.545000",
          "100916.885000",
          "100919.225000",
          "100921.565000",
          "100923.905000",
          "100926.245000",
          "100928.585000",
          "100930.925000",
          "100933.265000",
          "100935.605000",
          "100937.945000",
          "100940.285000",
          "100942.625000",
          "100944.965000",
          "100947.305000",
          "100949.645000",
          "100951.985000",
          "100954.325000",
          "100956.665000",
          "100959.005000",
          "101001.345000",
          "101003.685000",
          "101006.025000",
          "101008.365000",
          "101010.705000",
          "101013.045000",
          "101015.385000",
          "101017.725000",
          "101020.065000",
          "101022.405000",
          "101024.745000",
          "101027.085000",
          "101029.425000",
          "101031.765000",
          "101034.105000",
          "101036.445000",
          "101038.785000",
          "101041.125000",
          "101043.465000",
          "101045.805000",
          "101048.145000",
          "101050.485000",
          "101052.825000",
          "101055.165000",
          "101057.505000",
          "101059.845000",
          "101102.185000",
          "101104.525000",
          "101106.865000",
          "101109.205000",
          "101111.545000",
          "101113.885000",
          "101116.225000",
          "101118.565000",
          "101120.905000",
          "101123.245000",
          "101125.585000",
          "101127.925000",
          "101130.265000",
          "101132.605000",
          "101134.945000",
          "101137.285000"
        ],
        "ContentTime": [
          "100734.983000",
          "100734.987000",
          "100734.990000",
          "100734.993000",
          "100734.996000",
          "100734.998000",
          "100735.002000",
          "100735.005000",
          "100735.008000",
          "100735.011000",
          "100735.013000",
          "100735.016000",
          "100735.019000",
          "100735.022000",
          "100735.025000",
          "100735.028000",
          "100735.030000",
          "100735.033000",
          "100735.036000",
          "100735.039000",
          "100735.042000",
          "100735.044000",
          "100735.047000",
          "100735.050000",
          "100735.053000",
          "100834.976000",
          "100834.980000",
          "100834.982000",
          "100834.985000",
          "100834.988000",
          "100834.991000",
          "100834.994000",
          "100834.996000",
          "100835.000000",
          "100835.002000",
          "100835.005000",
          "100835.013000",
          "100835.016000",
          "100835.018000",
          "100835.021000",
          "100835.024000",
          "100835.026000",
          "100835.029000",
          "100835.032000",
          "100835.034000",
          "100835.037000",
          "100835.039000",
          "100835.042000",
          "100835.045000",
          "100835.047000",
          "100934.977000",
          "100934.980000",
          "100934.982000",
          "100934.985000",
          "100934.987000",
          "100934.990000",
          "100934.993000",
          "100934.995000",
          "100934.998000",
          "100935.000000",
          "100935.003000",
          "100935.005000",
          "100935.008000",
          "100935.011000",
          "100935.013000",
          "100935.016000",
          "100935.018000",
          "100935.021000",
          "100935.024000",
          "100935.031000",
          "100935.034000",
          "100935.036000",
          "100935.039000",
          "100935.042000",
          "100935.045000",
          "100935.048000",
          "101034.976000",
          "101034.980000",
          "101034.983000",
          "101034.986000",
          "101035.000000",
          "101035.002000",
          "101035.005000",
          "101035.008000",
          "101035.010000",
          "101035.013000",
          "101035.015000",
          "101035.018000",
          "101035.021000",
          "101035.023000",
          "101035.026000",
          "101035.029000",
          "101035.031000",
          "101035.036000",
          "101035.039000",
          "101035.042000",
          "101035.044000",
          "101035.047000",
          "101035.050000",
          "101035.060000",
          "101035.063000",
          "101035.066000",
          "101134.974000",
          "101134.977000",
          "101134.980000",
          "101134.983000",
          "101134.986000",
          "101134.988000",
          "101134.991000",
          "101134.994000",
          "101134.996000",
          "101135.000000",
          "101135.003000",
          "101135.006000",
          "101135.008000",
          "101135.011000",
          "101135.013000",
          "101135.016000",
          "101135.019000",
          "101135.021000",
          "101135.024000",
          "101135.027000",
          "101135.029000",
          "101135.032000",
          "101135.034000",
          "101135.037000",
          "101135.039000",
          "101138.799000",
          "101138.802000"
        ],
        "InstanceCreationTime": [
          "100734.983000",
          "100734.987000",
          "100734.990000",
          "100734.993000",
          "100734.996000",
          "100734.998000",
          "100735.002000",
          "100735.005000",
          "100735.008000",
          "100735.011000",
          "100735.013000",
          "100735.016000",
          "100735.019000",
          "100735.022000",
          "100735.025000",
          "100735.028000",
          "100735.030000",
          "100735.033000",
          "100735.036000",
          "100735.039000",
          "100735.042000",
          "100735.044000",
          "100735.047000",
          "100735.050000",
          "100735.053000",
          "100834.976000",
          "100834.980000",
          "100834.982000",
          "100834.985000",
          "100834.988000",
          "100834.991000",
          "100834.994000",
          "100834.996000",
          "100835.000000",
          "100835.002000",
          "100835.005000",
          "100835.013000",
          "100835.016000",
          "100835.018000",
          "100835.021000",
          "100835.024000",
          "100835.026000",
          "100835.029000",
          "100835.032000",
          "100835.034000",
          "100835.037000",
          "100835.039000",
          "100835.042000",
          "100835.045000",
          "100835.047000",
          "100934.977000",
          "100934.980000",
          "100934.982000",
          "100934.985000",
          "100934.987000",
          "100934.990000",
          "100934.993000",
          "100934.995000",
          "100934.998000",
          "100935.000000",
          "100935.003000",
          "100935.005000",
          "100935.008000",
          "100935.011000",
          "100935.013000",
          "100935.016000",
          "100935.018000",
          "100935.021000",
          "100935.024000",
          "100935.031000",
          "100935.034000",
          "100935.036000",
          "100935.039000",
          "100935.042000",
          "100935.045000",
          "100935.048000",
          "101034.976000",
          "101034.980000",
          "101034.983000",
          "101034.986000",
          "101035.000000",
          "101035.002000",
          "101035.005000",
          "101035.008000",
          "101035.010000",
          "101035.013000",
          "101035.015000",
          "101035.018000",
          "101035.021000",
          "101035.023000",
          "101035.026000",
          "101035.029000",
          "101035.031000",
          "101035.036000",
          "101035.039000",
          "101035.042000",
          "101035.044000",
          "101035.047000",
          "101035.050000",
          "101035.060000",
          "101035.063000",
          "101035.066000",
          "101134.974000",
          "101134.977000",
          "101134.980000",
          "101134.983000",
          "101134.986000",
          "101134.988000",
          "101134.991000",
          "101134.994000",
          "101134.996000",
          "101135.000000",
          "101135.003000",
          "101135.006000",
          "101135.008000",
          "101135.011000",
          "101135.013000",
          "101135.016000",
          "101135.019000",
          "101135.021000",
          "101135.024000",
          "101135.027000",
          "101135.029000",
          "101135.032000",
          "101135.034000",
          "101135.037000",
          "101135.039000",
          "101138.799000",
          "101138.802000"
        ],
        "InstanceNumber": [
          1,
          2,
          3,
          4,
          5,
          6,
          7,
          8,
          9,
          10,
          11,
          12,
          13,
          14,
          15,
          16,
          17,
          18,
          19,
          20,
          21,
          22,
          23,
          24,
          25,
          26,
          27,
          28,
          29,
          30,
          31,
          32,
          33,
          34,
          35,
          36,
          37,
          38,
          39,
          40,
          41,
          42,
          43,
          44,
          45,
          46,
          47,
          48,
          49,
          50,
          51,
          52,
          53,
          54,
          55,
          56,
          57,
          58,
          59,
          60,
          61,
          62,
          63,
          64,
          65,
          66,
          67,
          68,
          69,
          70,
          71,
          72,
          73,
          74,
          75,
          76,
          77,
          78,
          79,
          80,
          81,
          82,
          83,
          84,
          85,
          86,
          87,
          88,
          89,
          90,
          91,
          92,
          93,
          94,
          95,
          96,
          97,
          98,
          99,
          100,
          101,
          102,
          103,
          104,
          105,
          106,
          107,
          108,
          109,
          110,
          111,
          112,
          113,
          114,
          115,
          116,
          117,
          118,
          119,
          120,
          121,
          122,
          123,
          124,
          125,
          126,
          127,
          128,
          129
        ],
        "LargestImagePixelValue": [
          1861,
          2312,
          2233,
          1792,
          1774,
          1873,
          1808,
          1858,
          1701,
          1901,
          1791,
          2299,
          1917,
          1832,
          1983,
          1817,
          1799,
          2691,
          1769,
          1773,
          2169,
          1810,
          1768,
          2583,
          1658,
          1740,
          1790,
          2281,
          1697,
          1756,
          1860,
          1880,
          1750,
          2170,
          1916,
          1852,
          1885,
          2112,
          1680,
          1911,
          1795,
          1907,
          2518,
          1700,
          1710,
          1739,
          1726,
          2206,
          1753,
          1786,
          1700,
          1880,
          1748,
          1811,
          1970,
          2214,
          1858,
          1720,
          1841,
          1810,
          1947,
          1761,
          1795,
          2014,
          1683,
          1824,
          1772,
          1836,
          2073,
          2694,
          1709,
          1881,
          2480,
          1750,
          1866,
          1784,
          1758,
          1751,
          1888,
          2656,
          1882,
          1916,
          2020,
          1837,
          1788,
          2016,
          1775,
          1873,
          1726,
          1856,
          1754,
          2080,
          1727,
          1826,
          2109,
          1781,
          1791,
          1749,
          2104,
          2014,
          1935,
          1771,
          1997,
          1904,
          2335,
          1802,
          1811,
          1934,
          1742,
          2029,
          1726,
          2166,
          1975,
          1938,
          1626,
          1844,
          1963,
          2343,
          1832,
          2092,
          1680,
          2074,
          1922,
          2691,
          1837,
          1903,
          1848,
          1730,
          1906
        ],
        "WindowCenter": [
          790.0,
          789.0,
          786.0,
          786.0,
          787.0,
          788.0,
          787.0,
          787.0,
          788.0,
          789.0,
          788.0,
          789.0,
          787.0,
          789.0,
          788.0,
          788.0,
          788.0,
          791.0,
          786.0,
          787.0,
          786.0,
          786.0,
          790.0,
          790.0,
          785.0,
          788.0,
          788.0,
          788.0,
          786.0,
          787.0,
          787.0,
          788.0,
          788.0,
          789.0,
          786.0,
          786.0,
          787.0,
          788.0,
          787.0,
          788.0,
          789.0,
          789.0,
          789.0,
          786.0,
          786.0,
          789.0,
          789.0,
          788.0,
          787.0,
          789.0,
          789.0,
          787.0,
          787.0,
          789.0,
          789.0,
          789.0,
          786.0,
          787.0,
          789.0,
          790.0,
          789.0,
          788.0,
          788.0,
          788.0,
          788.0,
          791.0,
          788.0,
          791.0,
          790.0,
          790.0,
          788.0,
          789.0,
          790.0,
          788.0,
          787.0,
          789.0,
          789.0,
          791.0,
          791.0,
          792.0,
          788.0,
          789.0,
          792.0,
          787.0,
          787.0,
          792.0,
          788.0,
          790.0,
          788.0,
          789.0,
          789.0,
          790.0,
          787.0,
          790.0,
          789.0,
          789.0,
          790.0,
          791.0,
          790.0,
          790.0,
          789.0,
          790.0,
          791.0,
          791.0,
          789.0,
          788.0,
          788.0,
          792.0,
          792.0,
          792.0,
          787.0,
          791.0,
          789.0,
          788.0,
          791.0,
          794.0,
          791.0,
          791.0,
          790.0,
          790.0,
          789.0,
          792.0,
          791.0,
          792.0,
          790.0,
          790.0,
          788.0,
          789.0,
          790.0
        ],
        "WindowWidth": [
          1643.0,
          1640.0,
          1635.0,
          1633.0,
          1637.0,
          1637.0,
          1635.0,
          1635.0,
          1637.0,
          1640.0,
          1637.0,
          1641.0,
          1635.0,
          1639.0,
          1638.0,
          1639.0,
          1637.0,
          1644.0,
          1633.0,
          1634.0,
          1633.0,
          1635.0,
          1642.0,
          1642.0,
          1632.0,
          1637.0,
          1637.0,
          1638.0,
          1633.0,
          1636.0,
          1634.0,
          1639.0,
          1639.0,
          1640.0,
          1634.0,
          1635.0,
          1636.0,
          1638.0,
          1634.0,
          1639.0,
          1639.0,
          1640.0,
          1640.0,
          1633.0,
          1633.0,
          1640.0,
          1640.0,
          1638.0,
          1636.0,
          1641.0,
          1639.0,
          1636.0,
          1634.0,
          1640.0,
          1639.0,
          1640.0,
          1633.0,
          1636.0,
          1642.0,
          1643.0,
          1641.0,
          1638.0,
          1640.0,
          1637.0,
          1638.0,
          1645.0,
          1637.0,
          1645.0,
          1641.0,
          1644.0,
          1637.0,
          1639.0,
          1643.0,
          1638.0,
          1636.0,
          1641.0,
          1640.0,
          1645.0,
          1644.0,
          1647.0,
          1639.0,
          1641.0,
          1647.0,
          1636.0,
          1636.0,
          1648.0,
          1639.0,
          1642.0,
          1638.0,
          1641.0,
          1640.0,
          1642.0,
          1637.0,
          1642.0,
          1640.0,
          1640.0,
          1644.0,
          1644.0,
          1643.0,
          1642.0,
          1642.0,
          1643.0,
          1646.0,
          1645.0,
          1642.0,
          1638.0,
          1638.0,
          1648.0,
          1646.0,
          1649.0,
          1637.0,
          1645.0,
          1641.0,
          1639.0,
          1644.0,
          1653.0,
          1646.0,
          1646.0,
          1643.0,
          1643.0,
          1641.0,
          1647.0,
          1645.0,
          1647.0,
          1642.0,
          1643.0,
          1639.0,
          1641.0,
          1643.0
        ]
      },
      "slices": {}
    }
  },
  "dummy_trs": 0,
  "dvars_nstd": 39.62265522750001,
  "dvars_std": 1.3043397212499994,
  "dvars_vstd": 1.051625817734375,
  "efc": 0.6036993260017485,
  "fber": 1336.4600830078125,
  "fd_mean": 0.5893666239836798,
  "fd_num": 113,
  "fd_perc": 87.59689922480621,
  "fwhm_avg": 1.6468459669130235,
  "fwhm_x": 1.5511866666666665,
  "fwhm_y": 1.8701966666666667,
  "fwhm_z": 1.5191545674057378,
  "gcor": 0.024847,
  "gsr_x": 0.0008609230862930417,
  "gsr_y": 0.04100486636161804,
  "provenance": {
    "md5sum": "9bc2f3236dc98c44e6563d60ac5dd8c6",
    "settings": {
      "fd_thres": 0.2,
      "testing": false
    },
    "software": "mriqc",
    "version": "22.0.1",
    "webapi_port": null,
    "webapi_url": "https://mriqc.nimh.nih.gov/api/v1"
  },
  "size_t": 129,
  "size_x": 64,
  "size_y": 64,
  "size_z": 34,
  "snr": 6.527951818113511,
  "spacing_tr": 2.3399999141693115,
  "spacing_x": 3.0,
  "spacing_y": 3.0,
  "spacing_z": 3.299999952316284,
  "summary_bg_k": 33.92426165261299,
  "summary_bg_mad": 9.665648095560757,
  "summary_bg_mean": 38.46104049682617,
  "summary_bg_median": 22.627906799316406,
  "summary_bg_n": 67595.0,
  "summary_bg_p05": 12.827131843566896,
  "summary_bg_p95": 107.60852813720686,
  "summary_bg_stdv": 51.874542236328125,
  "summary_fg_k": 2.676562867236714,
  "summary_fg_mad": 124.44664764267847,
  "summary_fg_mean": 855.33203125,
  "summary_fg_median": 852.6279296875,
  "summary_fg_n": 38605.0,
  "summary_fg_p05": 666.43408203125,
  "summary_fg_p95": 1050.1147705078124,
  "summary_fg_stdv": 130.61016845703125,
  "tsnr": 51.80508930282667
}