{
  "aor": 0.0036040944881889766,
  "aqi": 0.014378917716535431,
  "bids_meta": {
    "AcquisitionMatrixPE": 64,
    "AcquisitionNumber": 1,
    "AcquisitionTime": "13:16:28.700000",
    "BandwidthPerPixelPhaseEncode": 24.038,
    "BaseResolution": 64,
    "BodyPartExamined": "HEAD",
    "ConsistencyInfo": "N4_VD13A_LATEST_20120616",
    "ConversionSoftware": "dcm2niix",
    "ConversionSoftwareVersion": "v1.0.20181125  GCC6.3.0",
    "DerivedVendorReportedEchoSpacing": 0.000650012,
    "DeviceSerialNumber": "45250",
    "DwellTime": 4.6e-06,
    "EchoTime": 0.033,
    "EchoTrainLength": 64,
    "EffectiveEchoSpacing": 0.000650012,
    "FlipAngle": 90,
    "ImageOrientationPatientDICOM": [
      0.999045,
      0.035647,
      -0.0252629,
      -0.0383795,
      0.992326,
      -0.117539
    ],
    "ImageType": [
      "ORIGINAL",
      "PRIMARY",
      "M",
      "ND",
      "NORM",
      "MOSAIC"
    ],
    "ImagingFrequency": 123.22,
    "InPlanePhaseEncodingDirectionDICOM": "COL",
    "InstitutionAddress": "Kopernikusstr._26_Graz_Graz_AT_8010",
    "InstitutionName": "KFU",
    "InstitutionalDepartmentName": "Department",
    "MRAcquisitionType": "2D",
    "MagneticFieldStrength": 3,
    "Manufacturer": "Siemens",
    "ManufacturersModelName": "Skyra",
    "Modality": "MR",
    "PartialFourier": 1,
    "PatientPosition": "HFS",
    "PercentPhaseFOV": 100,
    "PhaseEncodingDirection": "j-",
    "PhaseEncodingSteps": 64,
    "PhaseResolution": 1,
    "PixelBandwidth": 1700,
    "ProcedureStepDescription": "KFU_Entw-Psy",
    "ProtocolName": "fMRI_1",
    "PulseSequenceDetails": "%SiemensSeq%_ep2d_pace",
    "ReceiveCoilActiveElements": "HE1-4",
    "ReceiveCoilName": "HeadNeck_20",
    "ReconMatrixPE": 64,
    "RepetitionTime": 2.34,
    "SAR": 0.188595,
    "ScanOptions": "FS",
    "ScanningSequence": "EP",
    "SequenceName": "_epfid2d1_64",
    "SequenceVariant": "SK",
    "SeriesDescription": "fMRI_1",
    "SeriesNumber": 2,
    "ShimSetting": [
      -1683,
      -3728,
      -4292,
      438,
      435,
      2,
      192,
      -389
    ],
    "SliceThickness": 3,
    "SliceTiming": [
      2.25,
      2.1825,
      2.115,
      2.045,
      1.9775,
      1.91,
      1.8425,
      1.7725,
      1.705,
      1.6375,
      1.5675,
      1.5,
      1.4325,
      1.365,
      1.295,
      1.2275,
      1.16,
      1.09,
      1.0225,
      0.955,
      0.8875,
      0.8175,
      0.75,
      0.6825,
      0.6125,
      0.545,
      0.4775,
      0.4075,
      0.34,
      0.2725,
      0.205,
      0.135,
      0.0675,
      0
    ],
    "SoftwareVersions": "syngo_MR_D13",
    "SpacingBetweenSlices": 3.3,
    "StationName": "FBMTMR1",
    "TaskName": "read",
    "TotalReadoutTime": 0.0409508,
    "TxRefAmp": 329.566,
    "dataset": "ds003126",
    "dcmmeta_affine": [
      [
        -2.9971351623535156,
        -0.11513849347829819,
        -0.06890127062797546,
        96.50537109375
      ],
      [
        -0.10694102197885513,
        2.9769790172576904,
        -0.39070820808410645,
        -103.5572280883789
      ],
      [
        -0.07578884810209274,
        0.3526172637939453,
        3.27606463432312,
        -22.13321304321289
      ],
      [
        0.0,
        0.0,
        0.0,
        1.0
      ]
    ],
    "dcmmeta_reorient_transform": [
      [
        0.0,
        -1.0,
        0.0,
        63.0
      ],
      [
        1.0,
        0.0,
        0.0,
        0.0
      ],
      [
        0.0,
        0.0,
        1.0,
        0.0
      ],
      [
        0.0,
        0.0,
        0.0,
        1.0
      ]
    ],
    "dcmmeta_shape": [
      64,
      64,
      34,
      127
    ],
    "dcmmeta_slice_dim": 2,
    "dcmmeta_version": 0.6,
    "global": {
      "const": {
        "AcquisitionMatrix": [
          64,
          0,
          0,
          64
        ],
        "AngioFlag": "N",
        "BitsAllocated": 16,
        "BitsStored": 12,
        "BodyPartExamined": "HEAD",
        "Columns": 384,
        "EchoNumbers": 1,
        "EchoTime": 33.0,
        "EchoTrainLength": 64,
        "FlipAngle": 90.0,
        "HighBit": 11,
        "ImageOrientationPatient": [
          0.99904508121005,
          0.03564700719816,
          -0.0252629489139,
          -0.0383794977193,
          0.99232634575536,
          -0.1175390899856
        ],
        "ImagePositionPatient": [
          -550.37112586752,
          -577.41965909084,
          68.626654116517
        ],
        "ImageType": [
          "ORIGINAL",
          "PRIMARY",
          "M",
          "ND",
          "NORM",
          "MOSAIC"
        ],
        "ImagedNucleus": "1H",
        "ImagingFrequency": 123.220124,
        "InPlanePhaseEncodingDirection": "COL",
        "MRAcquisitionType": "2D",
        "MagneticFieldStrength": 3.0,
        "Manufacturer": "SIEMENS",
        "ManufacturerModelName": "Skyra",
        "Modality": "MR",
        "NumberOfAverages": 1.0,
        "NumberOfPhaseEncodingSteps": 64,
        "PercentPhaseFieldOfView": 100.0,
        "PercentSampling": 100.0,
        "PerformedProcedureStepStartTime": "130954.046000",
        "PhotometricInterpretation": "MONOCHROME2",
        "PixelBandwidth": 1700.0,
        "PixelRepresentation": 0,
        "PixelSpacing": [
          3.0,
          3.0
        ],
        "ProtocolName": "fMRI_1",
        "RepetitionTime": 2340.0,
        "Rows": 384,
        "SAR": 0.18859481663002,
        "SamplesPerPixel": 1,
        "ScanOptions": "FS",
        "ScanningSequence": "EP",
        "SequenceName": "*epfid2d1_64",
        "SequenceVariant": "SK",
        "SeriesDescription": "fMRI_1",
        "SeriesNumber": 2,
        "SeriesTime": "131724.209000",
        "SliceLocation": -11.726823613717,
        "SliceThickness": 3.0,
        "SmallestImagePixelValue": 0,
        "SoftwareVersions": "syngo MR D13",
        "SpacingBetweenSlices": 3.299999915504,
        "SpecificCharacterSet": "ISO_IR 100",
        "StudyID": "1",
        "StudyTime": "130953.993000",
        "TransmitCoilName": "Body",
        "VariableFlipAngleFlag": "N",
        "WindowCenterWidthExplanation": "Algo1",
        "dBdt": 0.0
      },
      "slices": {}
    },
    "modality": "bold",
    "run_id": 1,
    "session_id": "2",
    "subject_id": "047EPKL013057",
    "task_id": "read",
    "time": {
      "samples": {
        "AcquisitionNumber": [
          1,
          2,
          3,
          4,
          5,
          6,
          7,
          8,
          9,
          10,
          11,
          12,
          13,
          14,
          15,
          16,
          17,
          18,
          19,
          20,
          21,
          22,
          23,
          24,
          25,
          26,
          27,
          28,
          29,
          30,
          31,
          32,
          33,
          34,
          35,
          36,
          37,
          38,
          39,
          40,
          41,
          42,
          43,
          44,
          45,
          46,
          47,
          48,
          49,
          50,
          51,
          52,
          53,
          54,
          55,
          56,
          57,
          58,
          59,
          60,
          61,
          62,
          63,
          64,
          65,
          66,
          67,
          68,
          69,
          70,
          71,
          72,
          73,
          74,
          75,
          76,
          77,
          78,
          79,
          80,
          81,
          82,
          83,
          84,
          85,
          86,
          87,
          88,
          89,
          90,
          91,
          92,
          93,
          94,
          95,
          96,
          97,
          98,
          99,
          100,
          101,
          102,
          103,
          104,
          105,
          106,
          107,
          108,
          109,
          110,
          111,
          112,
          113,
          114,
          115,
          116,
          117,
          118,
          119,
          120,
          121,
          122,
          123,
          124,
          125,
          126,
          127
        ],
        "AcquisitionTime": [
          "131628.700000",
          "131631.040000",
          "131633.380000",
          "131635.720000",
          "131638.060000",
          "131640.400000",
          "131642.740000",
          "131645.080000",
          "131647.420000",
          "131649.760000",
          "131652.100000",
          "131654.440000",
          "131656.780000",
          "131659.120000",
          "131701.460000",
          "131703.800000",
          "131706.140000",
          "131708.480000",
          "131710.820000",
          "131713.160000",
          "131715.500000",
          "131717.840000",
          "131720.180000",
          "131722.520000",
          "131724.860000",
          "131727.200000",
          "131729.540000",
          "131731.880000",
          "131734.220000",
          "131736.560000",
          "131738.900000",
          "131741.240000",
          "131743.580000",
          "131745.920000",
          "131748.260000",
          "131750.600000",
          "131752.940000",
          "131755.280000",
          "131757.620000",
          "131759.960000",
          "131802.300000",
          "131804.640000",
          "131806.980000",
          "131809.320000",
          "131811.660000",
          "131814.000000",
          "131816.340000",
          "131818.680000",
          "131821.020000",
          "131823.360000",
          "131825.700000",
          "131828.040000",
          "131830.380000",
          "131832.720000",
          "131835.060000",
          "131837.400000",
          "131839.740000",
          "131842.080000",
          "131844.420000",
          "131846.760000",
          "131849.100000",
          "131851.440000",
          "131853.780000",
          "131856.120000",
          "131858.460000",
          "131900.800000",
          "131903.140000",
          "131905.480000",
          "131907.820000",
          "131910.160000",
          "131912.500000",
          "131914.840000",
          "131917.180000",
          "131919.520000",
          "131921.860000",
          "131924.200000",
          "131926.540000",
          "131928.880000",
          "131931.220000",
          "131933.560000",
          "131935.900000",
          "131938.240000",
          "131940.580000",
          "131942.920000",
          "131945.260000",
          "131947.600000",
          "131949.940000",
          "131952.280000",
          "131954.620000",
          "131956.960000",
          "131959.300000",
          "132001.640000",
          "132003.980000",
          "132006.320000",
          "132008.660000",
          "132011.000000",
          "132013.340000",
          "132015.680000",
          "132018.020000",
          "132020.360000",
          "132022.700000",
          "132025.040000",
          "132027.380000",
          "132029.720000",
          "132032.060000",
          "132034.400000",
          "132036.740000",
          "132039.080000",
          "132041.420000",
          "132043.760000",
          "132046.100000",
          "132048.440000",
          "132050.780000",
          "132053.120000",
          "132055.460000",
          "132057.800000",
          "132100.140000",
          "132102.480000",
          "132104.820000",
          "132107.160000",
          "132109.500000",
          "132111.840000",
          "132114.180000",
          "132116.520000",
          "132118.860000",
          "132121.200000",
          "132123.540000"
        ],
        "ContentTime": [
          "131724.213000",
          "131724.217000",
          "131724.228000",
          "131724.231000",
          "131724.233000",
          "131724.236000",
          "131724.239000",
          "131724.241000",
          "131724.244000",
          "131724.246000",
          "131724.249000",
          "131724.252000",
          "131724.254000",
          "131724.257000",
          "131724.260000",
          "131724.263000",
          "131724.266000",
          "131724.268000",
          "131724.271000",
          "131724.274000",
          "131724.277000",
          "131724.280000",
          "131724.283000",
          "131724.285000",
          "131824.207000",
          "131824.211000",
          "131824.213000",
          "131824.221000",
          "131824.223000",
          "131824.226000",
          "131824.228000",
          "131824.231000",
          "131824.233000",
          "131824.236000",
          "131824.239000",
          "131824.241000",
          "131824.244000",
          "131824.246000",
          "131824.249000",
          "131824.252000",
          "131824.254000",
          "131824.257000",
          "131824.260000",
          "131824.262000",
          "131824.265000",
          "131824.267000",
          "131824.273000",
          "131824.276000",
          "131824.279000",
          "131824.281000",
          "131924.207000",
          "131924.211000",
          "131924.213000",
          "131924.216000",
          "131924.218000",
          "131924.221000",
          "131924.224000",
          "131924.226000",
          "131924.230000",
          "131924.233000",
          "131924.235000",
          "131924.238000",
          "131924.241000",
          "131924.243000",
          "131924.246000",
          "131924.255000",
          "131924.257000",
          "131924.260000",
          "131924.263000",
          "131924.265000",
          "131924.268000",
          "131924.270000",
          "131924.273000",
          "131924.275000",
          "131924.278000",
          "132024.208000",
          "132024.212000",
          "132024.215000",
          "132024.217000",
          "132024.220000",
          "132024.223000",
          "132024.226000",
          "132024.229000",
          "132024.231000",
          "132024.234000",
          "132024.236000",
          "132024.239000",
          "132024.242000",
          "132024.244000",
          "132024.247000",
          "132024.249000",
          "132024.252000",
          "132024.255000",
          "132024.257000",
          "132024.260000",
          "132024.263000",
          "132024.266000",
          "132024.277000",
          "132024.280000",
          "132024.283000",
          "132024.286000",
          "132124.207000",
          "132124.210000",
          "132124.213000",
          "132124.215000",
          "132124.218000",
          "132124.221000",
          "132124.223000",
          "132124.226000",
          "132124.229000",
          "132124.232000",
          "132124.234000",
          "132124.237000",
          "132124.240000",
          "132124.243000",
          "132124.245000",
          "132124.248000",
          "132124.250000",
          "132124.253000",
          "132124.256000",
          "132124.258000",
          "132124.261000",
          "132124.264000",
          "132124.266000",
          "132124.269000",
          "132124.271000",
          "132124.274000"
        ],
        "InstanceCreationTime": [
          "131724.213000",
          "131724.217000",
          "131724.228000",
          "131724.231000",
          "131724.233000",
          "131724.236000",
          "131724.239000",
          "131724.241000",
          "131724.244000",
          "131724.246000",
          "131724.249000",
          "131724.252000",
          "131724.254000",
          "131724.257000",
          "131724.260000",
          "131724.263000",
          "131724.266000",
          "131724.268000",
          "131724.271000",
          "131724.274000",
          "131724.277000",
          "131724.280000",
          "131724.283000",
          "131724.285000",
          "131824.207000",
          "131824.211000",
          "131824.213000",
          "131824.221000",
          "131824.223000",
          "131824.226000",
          "131824.228000",
          "131824.231000",
          "131824.233000",
          "131824.236000",
          "131824.239000",
          "131824.241000",
          "131824.244000",
          "131824.246000",
          "131824.249000",
          "131824.252000",
          "131824.254000",
          "131824.257000",
          "131824.260000",
          "131824.262000",
          "131824.265000",
          "131824.267000",
          "131824.273000",
          "131824.276000",
          "131824.279000",
          "131824.281000",
          "131924.207000",
          "131924.211000",
          "131924.213000",
          "131924.216000",
          "131924.218000",
          "131924.221000",
          "131924.224000",
          "131924.226000",
          "131924.230000",
          "131924.233000",
          "131924.235000",
          "131924.238000",
          "131924.241000",
          "131924.243000",
          "131924.246000",
          "131924.255000",
          "131924.257000",
          "131924.260000",
          "131924.263000",
          "131924.265000",
          "131924.268000",
          "131924.270000",
          "131924.273000",
          "131924.275000",
          "131924.278000",
          "132024.208000",
          "132024.212000",
          "132024.215000",
          "132024.217000",
          "132024.220000",
          "132024.223000",
          "132024.226000",
          "132024.229000",
          "132024.231000",
          "132024.234000",
          "132024.236000",
          "132024.239000",
          "132024.242000",
          "132024.244000",
          "132024.247000",
          "132024.249000",
          "132024.252000",
          "132024.255000",
          "132024.257000",
          "132024.260000",
          "132024.263000",
          "132024.266000",
          "132024.277000",
          "132024.280000",
          "132024.283000",
          "132024.286000",
          "132124.207000",
          "132124.210000",
          "132124.213000",
          "132124.215000",
          "132124.218000",
          "132124.221000",
          "132124.223000",
          "132124.226000",
          "132124.229000",
          "132124.232000",
          "132124.234000",
          "132124.237000",
          "132124.240000",
          "132124.243000",
          "132124.245000",
          "132124.248000",
          "132124.250000",
          "132124.253000",
          "132124.256000",
          "132124.258000",
          "132124.261000",
          "132124.264000",
          "132124.266000",
          "132124.269000",
          "132124.271000",
          "132124.274000"
        ],
        "InstanceNumber": [
          1,
          2,
          3,
          4,
          5,
          6,
          7,
          8,
          9,
          10,
          11,
          12,
          13,
          14,
          15,
          16,
          17,
          18,
          19,
          20,
          21,
          22,
          23,
          24,
          25,
          26,
          27,
          28,
          29,
          30,
          31,
          32,
          33,
          34,
          35,
          36,
          37,
          38,
          39,
          40,
          41,
          42,
          43,
          44,
          45,
          46,
          47,
          48,
          49,
          50,
          51,
          52,
          53,
          54,
          55,
          56,
          57,
          58,
          59,
          60,
          61,
          62,
          63,
          64,
          65,
          66,
          67,
          68,
          69,
          70,
          71,
          72,
          73,
          74,
          75,
          76,
          77,
          78,
          79,
          80,
          81,
          82,
          83,
          84,
          85,
          86,
          87,
          88,
          89,
          90,
          91,
          92,
          93,
          94,
          95,
          96,
          97,
          98,
          99,
          100,
          101,
          102,
          103,
          104,
          105,
          106,
          107,
          108,
          109,
          110,
          111,
          112,
          113,
          114,
          115,
          116,
          117,
          118,
          119,
          120,
          121,
          122,
          123,
          124,
          125,
          126,
          127
        ],
        "LargestImagePixelValue": [
          2257,
          2366,
          2363,
          2347,
          1974,
          2039,
          2228,
          2467,
          2069,
          2106,
          2147,
          2036,
          2022,
          1846,
          2142,
          1980,
          2209,
          2137,
          2129,
          2066,
          1869,
          2403,
          2511,
          1973,
          2102,
          2320,
          2092,
          2449,
          2477,
          2037,
          2094,
          1759,
          2144,
          2021,
          2022,
          2248,
          1928,
          2057,
          2052,
          2309,
          2350,
          1957,
          2035,
          2163,
          1878,
          1965,
          2069,
          1889,
          2096,
          2626,
          2328,
          1877,
          1742,
          2052,
          2426,
          2086,
          1873,
          1697,
          2357,
          2091,
          2162,
          2005,
          2113,
          1817,
          2110,
          1956,
          2050,
          1849,
          1841,
          1815,
          2110,
          1942,
          2168,
          2054,
          1981,
          1938,
          1952,
          2314,
          2231,
          1807,
          2218,
          2336,
          2200,
          2114,
          2174,
          2111,
          1684,
          1893,
          2364,
          2250,
          1859,
          1804,
          1937,
          2030,
          2198,
          2164,
          2077,
          1924,
          1823,
          2070,
          2264,
          1755,
          2358,
          1843,
          2353,
          2180,
          2331,
          1997,
          1810,
          1808,
          2371,
          2229,
          2348,
          2022,
          2014,
          2000,
          2274,
          2495,
          2557,
          2126,
          1963,
          1906,
          2617,
          1808,
          1936,
          1956,
          2146
        ],
        "WindowCenter": [
          740.0,
          738.0,
          737.0,
          736.0,
          736.0,
          736.0,
          737.0,
          737.0,
          737.0,
          737.0,
          738.0,
          738.0,
          738.0,
          737.0,
          738.0,
          738.0,
          738.0,
          737.0,
          735.0,
          735.0,
          736.0,
          737.0,
          738.0,
          736.0,
          736.0,
          737.0,
          736.0,
          736.0,
          735.0,
          735.0,
          734.0,
          735.0,
          736.0,
          736.0,
          737.0,
          737.0,
          735.0,
          737.0,
          736.0,
          736.0,
          736.0,
          735.0,
          733.0,
          735.0,
          736.0,
          739.0,
          739.0,
          737.0,
          737.0,
          737.0,
          734.0,
          733.0,
          737.0,
          739.0,
          738.0,
          737.0,
          736.0,
          738.0,
          739.0,
          736.0,
          736.0,
          735.0,
          736.0,
          735.0,
          737.0,
          736.0,
          736.0,
          740.0,
          738.0,
          738.0,
          738.0,
          738.0,
          738.0,
          737.0,
          739.0,
          738.0,
          738.0,
          739.0,
          738.0,
          739.0,
          739.0,
          738.0,
          735.0,
          736.0,
          738.0,
          737.0,
          737.0,
          739.0,
          740.0,
          737.0,
          736.0,
          739.0,
          738.0,
          738.0,
          738.0,
          738.0,
          739.0,
          738.0,
          738.0,
          740.0,
          739.0,
          740.0,
          740.0,
          737.0,
          739.0,
          737.0,
          736.0,
          738.0,
          739.0,
          738.0,
          739.0,
          738.0,
          738.0,
          739.0,
          738.0,
          745.0,
          742.0,
          741.0,
          740.0,
          739.0,
          739.0,
          740.0,
          740.0,
          738.0,
          741.0,
          740.0,
          741.0
        ],
        "WindowWidth": [
          1575.0,
          1572.0,
          1568.0,
          1566.0,
          1565.0,
          1567.0,
          1567.0,
          1570.0,
          1567.0,
          1568.0,
          1571.0,
          1571.0,
          1572.0,
          1568.0,
          1570.0,
          1571.0,
          1570.0,
          1567.0,
          1562.0,
          1563.0,
          1566.0,
          1569.0,
          1570.0,
          1564.0,
          1564.0,
          1567.0,
          1564.0,
          1565.0,
          1564.0,
          1562.0,
          1560.0,
          1562.0,
          1566.0,
          1564.0,
          1566.0,
          1568.0,
          1563.0,
          1566.0,
          1566.0,
          1564.0,
          1566.0,
          1561.0,
          1559.0,
          1563.0,
          1564.0,
          1571.0,
          1570.0,
          1566.0,
          1567.0,
          1568.0,
          1560.0,
          1559.0,
          1567.0,
          1572.0,
          1570.0,
          1568.0,
          1565.0,
          1570.0,
          1573.0,
          1565.0,
          1564.0,
          1564.0,
          1564.0,
          1563.0,
          1568.0,
          1565.0,
          1567.0,
          1573.0,
          1570.0,
          1569.0,
          1570.0,
          1570.0,
          1570.0,
          1568.0,
          1571.0,
          1570.0,
          1571.0,
          1575.0,
          1570.0,
          1572.0,
          1573.0,
          1571.0,
          1563.0,
          1565.0,
          1570.0,
          1568.0,
          1566.0,
          1573.0,
          1575.0,
          1567.0,
          1565.0,
          1573.0,
          1572.0,
          1570.0,
          1571.0,
          1572.0,
          1571.0,
          1570.0,
          1570.0,
          1574.0,
          1573.0,
          1575.0,
          1575.0,
          1566.0,
          1574.0,
          1567.0,
          1567.0,
          1569.0,
          1572.0,
          1570.0,
          1574.0,
          1570.0,
          1569.0,
          1574.0,
          1570.0,
          1589.0,
          1580.0,
          1578.0,
          1575.0,
          1574.0,
          1572.0,
          1575.0,
          1577.0,
          1571.0,
          1579.0,
          1577.0,
          1577.0
        ]
      },
      "slices": {}
    }
  },
  "dummy_trs": 0,
  "dvars_nstd": 33.57922684166667,
  "dvars_std": 1.2878267738888887,
  "dvars_vstd": 1.0207346794444447,
  "efc": 0.538783414281381,
  "fber": 1734.2164306640625,
  "fd_mean": 0.45088555315496137,
  "fd_num": 106,
  "fd_perc": 83.46456692913385,
  "fwhm_avg": 1.6037654618410777,
  "fwhm_x": 1.4771033333333332,
  "fwhm_y": 1.81949,
  "fwhm_z": 1.5147030521899,
  "gcor": 0.0475207,
  "gsr_x": -0.016390785574913025,
  "gsr_y": 0.04361626133322716,
  "provenance": {
    "md5sum": "40820b2a784b3758a87f649a51ea44c4",
    "settings": {
      "fd_thres": 0.2,
      "testing": false
    },
    "software": "mriqc",
    "version": "22.0.1",
    "webapi_port": null,
    "webapi_url": "https://mriqc.nimh.nih.gov/api/v1"
  },
  "size_t": 127,
  "size_x": 64,
  "size_y": 64,
  "size_z": 34,
  "snr": 7.63835349474911,
  "spacing_tr": 2.3399999141693115,
  "spacing_x": 3.0,
  "spacing_y": 3.0,
  "spacing_z": 3.299999952316284,
  "summary_bg_k": 54.8178693738194,
  "summary_bg_mad": 6.946049986529341,
  "summary_bg_mean": 34.11512756347656,
  "summary_bg_median": 20.385826110839844,
  "summary_bg_n": 78405.0,
  "summary_bg_p05": 13.0551176071167,
  "summary_bg_p95": 90.21889953613284,
  "summary_bg_stdv": 54.17654037475586,
  "summary_fg_k": 3.6417587145776773,
  "summary_fg_mad": 106.9049495617202,
  "summary_fg_mean": 864.2122802734375,
  "summary_fg_median": 865.964599609375,
  "summary_fg_n": 28996.0,
  "summary_fg_p05": 694.9527587890625,
  "summary_fg_p95": 1026.6141967773438,
  "summary_fg_stdv": 113.3686294555664,
  "tsnr": 57.280824054032564
}