{
  "aor": 0.006147153846153846,
  "aqi": 0.01935049569230769,
  "bids_meta": {
    "AcquisitionMatrixPE": 64,
    "AcquisitionNumber": 1,
    "AcquisitionTime": "14:45:34.310000",
    "BandwidthPerPixelPhaseEncode": 24.038,
    "BaseResolution": 64,
    "BodyPartExamined": "HEAD",
    "CoilString": "HE1-4;NE1_2",
    "ConsistencyInfo": "N4_VD13A_LATEST_20120616",
    "ConversionSoftware": "dcm2niix",
    "ConversionSoftwareVersion": "v1.0.20181125  GCC6.3.0",
    "DerivedVendorReportedEchoSpacing": 0.000650012,
    "DeviceSerialNumber": "45250",
    "DwellTime": 4.6e-06,
    "EchoTime": 0.033,
    "EchoTrainLength": 64,
    "EffectiveEchoSpacing": 0.000650012,
    "FlipAngle": 90,
    "ImageOrientationPatientDICOM": [
      0.999919,
      -0.00754745,
      -0.010219,
      0.00349042,
      0.936651,
      -0.350246
    ],
    "ImageType": [
      "ORIGINAL",
      "PRIMARY",
      "M",
      "ND",
      "NORM",
      "MOSAIC"
    ],
    "ImagingFrequency": 123.22,
    "InPlanePhaseEncodingDirectionDICOM": "COL",
    "InstitutionAddress": "Kopernikusstr._26_Graz_Graz_AT_8010",
    "InstitutionName": "KFU",
    "InstitutionalDepartmentName": "Department",
    "MRAcquisitionType": "2D",
    "MagneticFieldStrength": 3,
    "Manufacturer": "Siemens",
    "ManufacturersModelName": "Skyra",
    "Modality": "MR",
    "PartialFourier": 1,
    "PatientPosition": "HFS",
    "PercentPhaseFOV": 100,
    "PhaseEncodingDirection": "j-",
    "PhaseEncodingSteps": 64,
    "PhaseResolution": 1,
    "PixelBandwidth": 1700,
    "ProcedureStepDescription": "KFU_Entw-Psy",
    "ProtocolName": "fMRI_1",
    "PulseSequenceDetails": "%SiemensSeq%_ep2d_pace",
    "ReceiveCoilActiveElements": "HE1-4;NE1,2",
    "ReceiveCoilName": "HeadNeck_20",
    "ReconMatrixPE": 64,
    "RepetitionTime": 2.34,
    "SAR": 0.147039,
    "ScanOptions": "FS",
    "ScanningSequence": "EP",
    "SequenceName": "_epfid2d1_64",
    "SequenceVariant": "SK",
    "SeriesDescription": "fMRI_1",
    "SeriesNumber": 2,
    "ShimSetting": [
      -1667,
      -3636,
      -4348,
      302,
      460,
      103,
      38,
      -333
    ],
    "SliceThickness": 3,
    "SliceTiming": [
      2.25,
      2.1825,
      2.115,
      2.045,
      1.9775,
      1.91,
      1.8425,
      1.7725,
      1.705,
      1.6375,
      1.5675,
      1.5,
      1.4325,
      1.365,
      1.295,
      1.2275,
      1.16,
      1.09,
      1.0225,
      0.955,
      0.885,
      0.8175,
      0.75,
      0.6825,
      0.6125,
      0.545,
      0.4775,
      0.4075,
      0.34,
      0.2725,
      0.205,
      0.135,
      0.0675,
      0
    ],
    "SoftwareVersions": "syngo_MR_D13",
    "SpacingBetweenSlices": 3.3,
    "StationName": "FBMTMR1",
    "TaskName": "read",
    "TotalReadoutTime": 0.0409508,
    "TxRefAmp": 334.234,
    "dataset": "ds003126",
    "dcmmeta_affine": [
      [
        -2.999758005142212,
        0.010471265763044357,
        -0.040309980511665344,
        96.52510833740234
      ],
      [
        0.022642338648438454,
        2.809953212738037,
        -1.155602216720581,
        -97.7371826171875
      ],
      [
        -0.03065713308751583,
        1.0507391691207886,
        3.0907862186431885,
        -52.36302185058594
      ],
      [
        0.0,
        0.0,
        0.0,
        1.0
      ]
    ],
    "dcmmeta_reorient_transform": [
      [
        0.0,
        -1.0,
        0.0,
        63.0
      ],
      [
        1.0,
        0.0,
        0.0,
        0.0
      ],
      [
        0.0,
        0.0,
        1.0,
        0.0
      ],
      [
        0.0,
        0.0,
        0.0,
        1.0
      ]
    ],
    "dcmmeta_shape": [
      64,
      64,
      34,
      130
    ],
    "dcmmeta_slice_dim": 2,
    "dcmmeta_version": 0.6,
    "global": {
      "const": {
        "AcquisitionMatrix": [
          64,
          0,
          0,
          64
        ],
        "AngioFlag": "N",
        "BitsAllocated": 16,
        "BitsStored": 12,
        "BodyPartExamined": "HEAD",
        "Columns": 384,
        "EchoNumbers": 1,
        "EchoTime": 33.0,
        "EchoTrainLength": 64,
        "FlipAngle": 90.0,
        "HighBit": 11,
        "ImageOrientationPatient": [
          0.99991930033522,
          -0.0075474462557,
          -0.0102190445806,
          0.00349042180884,
          0.93665109342507,
          -0.3502464077492
        ],
        "ImagePositionPatient": [
          -578.82146844081,
          -525.25962705435,
          186.85696521178
        ],
        "ImageType": [
          "ORIGINAL",
          "PRIMARY",
          "M",
          "ND",
          "NORM",
          "MOSAIC"
        ],
        "ImagedNucleus": "1H",
        "ImagingFrequency": 123.220131,
        "InPlanePhaseEncodingDirection": "COL",
        "MRAcquisitionType": "2D",
        "MagneticFieldStrength": 3.0,
        "Manufacturer": "SIEMENS",
        "ManufacturerModelName": "Skyra",
        "Modality": "MR",
        "NumberOfAverages": 1.0,
        "NumberOfPhaseEncodingSteps": 64,
        "PercentPhaseFieldOfView": 100.0,
        "PercentSampling": 100.0,
        "PerformedProcedureStepStartTime": "144324.671000",
        "PhotometricInterpretation": "MONOCHROME2",
        "PixelBandwidth": 1700.0,
        "PixelRepresentation": 0,
        "PixelSpacing": [
          3.0,
          3.0
        ],
        "ProtocolName": "fMRI_1",
        "RepetitionTime": 2340.0,
        "Rows": 384,
        "SAR": 0.14703916749241,
        "SamplesPerPixel": 1,
        "ScanOptions": "FS",
        "ScanningSequence": "EP",
        "SequenceName": "*epfid2d1_64",
        "SequenceVariant": "SK",
        "SeriesDescription": "fMRI_1",
        "SeriesNumber": 2,
        "SeriesTime": "144626.153000",
        "SliceLocation": -15.996524835792,
        "SliceThickness": 3.0,
        "SmallestImagePixelValue": 0,
        "SoftwareVersions": "syngo MR D13",
        "SpacingBetweenSlices": 3.3000000363832,
        "SpecificCharacterSet": "ISO_IR 100",
        "StudyID": "1",
        "StudyTime": "144324.631000",
        "TransmitCoilName": "Body",
        "VariableFlipAngleFlag": "N",
        "WindowCenterWidthExplanation": "Algo1",
        "dBdt": 0.0
      },
      "slices": {}
    },
    "modality": "bold",
    "run_id": 1,
    "session_id": "2",
    "subject_id": "047EPKL013065",
    "task_id": "read",
    "time": {
      "samples": {
        "AcquisitionNumber": [
          1,
          2,
          3,
          4,
          5,
          6,
          7,
          8,
          9,
          10,
          11,
          12,
          13,
          14,
          15,
          16,
          17,
          18,
          19,
          20,
          21,
          22,
          23,
          24,
          25,
          26,
          27,
          28,
          29,
          30,
          31,
          32,
          33,
          34,
          35,
          36,
          37,
          38,
          39,
          40,
          41,
          42,
          43,
          44,
          45,
          46,
          47,
          48,
          49,
          50,
          51,
          52,
          53,
          54,
          55,
          56,
          57,
          58,
          59,
          60,
          61,
          62,
          63,
          64,
          65,
          66,
          67,
          68,
          69,
          70,
          71,
          72,
          73,
          74,
          75,
          76,
          77,
          78,
          79,
          80,
          81,
          82,
          83,
          84,
          85,
          86,
          87,
          88,
          89,
          90,
          91,
          92,
          93,
          94,
          95,
          96,
          97,
          98,
          99,
          100,
          101,
          102,
          103,
          104,
          105,
          106,
          107,
          108,
          109,
          110,
          111,
          112,
          113,
          114,
          115,
          116,
          117,
          118,
          119,
          120,
          121,
          122,
          123,
          124,
          125,
          126,
          127,
          128,
          129,
          130
        ],
        "AcquisitionTime": [
          "144534.310000",
          "144536.650000",
          "144538.990000",
          "144541.330000",
          "144543.670000",
          "144546.010000",
          "144548.350000",
          "144550.690000",
          "144553.030000",
          "144555.370000",
          "144557.710000",
          "144600.050000",
          "144602.390000",
          "144604.730000",
          "144607.070000",
          "144609.410000",
          "144611.750000",
          "144614.090000",
          "144616.430000",
          "144618.770000",
          "144621.110000",
          "144623.450000",
          "144625.790000",
          "144628.130000",
          "144630.470000",
          "144632.810000",
          "144635.150000",
          "144637.490000",
          "144639.830000",
          "144642.170000",
          "144644.510000",
          "144646.850000",
          "144649.190000",
          "144651.530000",
          "144653.870000",
          "144656.210000",
          "144658.550000",
          "144700.890000",
          "144703.230000",
          "144705.570000",
          "144707.910000",
          "144710.250000",
          "144712.590000",
          "144714.930000",
          "144717.270000",
          "144719.610000",
          "144721.950000",
          "144724.290000",
          "144726.630000",
          "144728.970000",
          "144731.310000",
          "144733.650000",
          "144735.990000",
          "144738.330000",
          "144740.670000",
          "144743.010000",
          "144745.350000",
          "144747.690000",
          "144750.030000",
          "144752.370000",
          "144754.710000",
          "144757.050000",
          "144759.390000",
          "144801.730000",
          "144804.070000",
          "144806.410000",
          "144808.750000",
          "144811.090000",
          "144813.430000",
          "144815.770000",
          "144818.110000",
          "144820.450000",
          "144822.790000",
          "144825.130000",
          "144827.470000",
          "144829.810000",
          "144832.150000",
          "144834.490000",
          "144836.830000",
          "144839.170000",
          "144841.510000",
          "144843.850000",
          "144846.190000",
          "144848.530000",
          "144850.870000",
          "144853.210000",
          "144855.550000",
          "144857.890000",
          "144900.230000",
          "144902.570000",
          "144904.910000",
          "144907.250000",
          "144909.590000",
          "144911.930000",
          "144914.270000",
          "144916.610000",
          "144918.950000",
          "144921.290000",
          "144923.630000",
          "144925.970000",
          "144928.310000",
          "144930.650000",
          "144932.990000",
          "144935.330000",
          "144937.670000",
          "144940.010000",
          "144942.350000",
          "144944.690000",
          "144947.030000",
          "144949.370000",
          "144951.710000",
          "144954.050000",
          "144956.390000",
          "144958.730000",
          "145001.070000",
          "145003.410000",
          "145005.750000",
          "145008.090000",
          "145010.430000",
          "145012.770000",
          "145015.110000",
          "145017.450000",
          "145019.790000",
          "145022.130000",
          "145024.470000",
          "145026.810000",
          "145029.150000",
          "145031.490000",
          "145033.830000",
          "145036.170000"
        ],
        "ContentTime": [
          "144626.157000",
          "144626.161000",
          "144626.164000",
          "144626.166000",
          "144626.169000",
          "144626.172000",
          "144626.175000",
          "144626.178000",
          "144626.180000",
          "144626.183000",
          "144626.191000",
          "144626.194000",
          "144626.197000",
          "144626.200000",
          "144626.203000",
          "144626.206000",
          "144626.209000",
          "144626.212000",
          "144626.215000",
          "144626.217000",
          "144626.220000",
          "144626.223000",
          "144726.151000",
          "144726.154000",
          "144726.157000",
          "144726.159000",
          "144726.162000",
          "144726.165000",
          "144726.168000",
          "144726.170000",
          "144726.173000",
          "144726.176000",
          "144726.179000",
          "144726.182000",
          "144726.184000",
          "144726.187000",
          "144726.190000",
          "144726.193000",
          "144726.195000",
          "144726.198000",
          "144726.200000",
          "144726.203000",
          "144726.206000",
          "144726.208000",
          "144726.211000",
          "144726.214000",
          "144726.216000",
          "144726.219000",
          "144806.151000",
          "144806.154000",
          "144806.157000",
          "144806.160000",
          "144806.162000",
          "144806.165000",
          "144806.168000",
          "144806.171000",
          "144806.173000",
          "144806.176000",
          "144806.179000",
          "144806.181000",
          "144806.184000",
          "144806.187000",
          "144806.189000",
          "144806.192000",
          "144806.194000",
          "144906.151000",
          "144906.154000",
          "144906.157000",
          "144906.160000",
          "144906.162000",
          "144906.165000",
          "144906.168000",
          "144906.171000",
          "144906.174000",
          "144906.177000",
          "144906.180000",
          "144906.183000",
          "144906.186000",
          "144906.189000",
          "144906.191000",
          "144906.194000",
          "144906.197000",
          "144906.199000",
          "144906.202000",
          "144906.205000",
          "144906.207000",
          "144906.210000",
          "144906.213000",
          "144906.215000",
          "144906.218000",
          "144906.221000",
          "145006.151000",
          "145006.154000",
          "145006.157000",
          "145006.160000",
          "145006.162000",
          "145006.165000",
          "145006.169000",
          "145006.171000",
          "145006.174000",
          "145006.177000",
          "145006.180000",
          "145006.183000",
          "145006.185000",
          "145006.188000",
          "145006.191000",
          "145006.194000",
          "145006.197000",
          "145006.199000",
          "145006.202000",
          "145006.205000",
          "145006.208000",
          "145006.210000",
          "145006.213000",
          "145006.216000",
          "145006.219000",
          "145037.172000",
          "145037.175000",
          "145037.178000",
          "145037.185000",
          "145037.192000",
          "145037.196000",
          "145037.199000",
          "145037.202000",
          "145037.204000",
          "145037.207000",
          "145037.210000",
          "145037.213000",
          "145037.215000",
          "145037.218000"
        ],
        "InstanceCreationTime": [
          "144626.157000",
          "144626.161000",
          "144626.164000",
          "144626.166000",
          "144626.169000",
          "144626.172000",
          "144626.175000",
          "144626.178000",
          "144626.180000",
          "144626.183000",
          "144626.191000",
          "144626.194000",
          "144626.197000",
          "144626.200000",
          "144626.203000",
          "144626.206000",
          "144626.209000",
          "144626.212000",
          "144626.215000",
          "144626.217000",
          "144626.220000",
          "144626.223000",
          "144726.151000",
          "144726.154000",
          "144726.157000",
          "144726.159000",
          "144726.162000",
          "144726.165000",
          "144726.168000",
          "144726.170000",
          "144726.173000",
          "144726.176000",
          "144726.179000",
          "144726.182000",
          "144726.184000",
          "144726.187000",
          "144726.190000",
          "144726.193000",
          "144726.195000",
          "144726.198000",
          "144726.200000",
          "144726.203000",
          "144726.206000",
          "144726.208000",
          "144726.211000",
          "144726.214000",
          "144726.216000",
          "144726.219000",
          "144806.151000",
          "144806.154000",
          "144806.157000",
          "144806.160000",
          "144806.162000",
          "144806.165000",
          "144806.168000",
          "144806.171000",
          "144806.173000",
          "144806.176000",
          "144806.179000",
          "144806.181000",
          "144806.184000",
          "144806.187000",
          "144806.189000",
          "144806.192000",
          "144806.194000",
          "144906.151000",
          "144906.154000",
          "144906.157000",
          "144906.160000",
          "144906.162000",
          "144906.165000",
          "144906.168000",
          "144906.171000",
          "144906.174000",
          "144906.177000",
          "144906.180000",
          "144906.183000",
          "144906.186000",
          "144906.189000",
          "144906.191000",
          "144906.194000",
          "144906.197000",
          "144906.199000",
          "144906.202000",
          "144906.205000",
          "144906.207000",
          "144906.210000",
          "144906.213000",
          "144906.215000",
          "144906.218000",
          "144906.221000",
          "145006.151000",
          "145006.154000",
          "145006.157000",
          "145006.160000",
          "145006.162000",
          "145006.165000",
          "145006.169000",
          "145006.171000",
          "145006.174000",
          "145006.177000",
          "145006.180000",
          "145006.183000",
          "145006.185000",
          "145006.188000",
          "145006.191000",
          "145006.194000",
          "145006.197000",
          "145006.199000",
          "145006.202000",
          "145006.205000",
          "145006.208000",
          "145006.210000",
          "145006.213000",
          "145006.216000",
          "145006.219000",
          "145037.172000",
          "145037.175000",
          "145037.178000",
          "145037.185000",
          "145037.192000",
          "145037.196000",
          "145037.199000",
          "145037.202000",
          "145037.204000",
          "145037.207000",
          "145037.210000",
          "145037.213000",
          "145037.215000",
          "145037.218000"
        ],
        "InstanceNumber": [
          1,
          2,
          3,
          4,
          5,
          6,
          7,
          8,
          9,
          10,
          11,
          12,
          13,
          14,
          15,
          16,
          17,
          18,
          19,
          20,
          21,
          22,
          23,
          24,
          25,
          26,
          27,
          28,
          29,
          30,
          31,
          32,
          33,
          34,
          35,
          36,
          37,
          38,
          39,
          40,
          41,
          42,
          43,
          44,
          45,
          46,
          47,
          48,
          49,
          50,
          51,
          52,
          53,
          54,
          55,
          56,
          57,
          58,
          59,
          60,
          61,
          62,
          63,
          64,
          65,
          66,
          67,
          68,
          69,
          70,
          71,
          72,
          73,
          74,
          75,
          76,
          77,
          78,
          79,
          80,
          81,
          82,
          83,
          84,
          85,
          86,
          87,
          88,
          89,
          90,
          91,
          92,
          93,
          94,
          95,
          96,
          97,
          98,
          99,
          100,
          101,
          102,
          103,
          104,
          105,
          106,
          107,
          108,
          109,
          110,
          111,
          112,
          113,
          114,
          115,
          116,
          117,
          118,
          119,
          120,
          121,
          122,
          123,
          124,
          125,
          126,
          127,
          128,
          129,
          130
        ],
        "LargestImagePixelValue": [
          2578,
          2301,
          2285,
          2892,
          2806,
          2748,
          2849,
          2927,
          3050,
          2876,
          2942,
          2504,
          2528,
          2954,
          2768,
          2472,
          2624,
          2329,
          2503,
          2568,
          2706,
          2791,
          2773,
          2711,
          2908,
          2840,
          2714,
          2826,
          2476,
          2692,
          2317,
          2422,
          2912,
          2896,
          1988,
          2951,
          2751,
          2315,
          2640,
          2718,
          2219,
          2380,
          2616,
          3102,
          2387,
          2703,
          2601,
          2622,
          2717,
          2772,
          2416,
          2866,
          2846,
          2410,
          2870,
          2172,
          2562,
          2873,
          2544,
          2609,
          2762,
          2740,
          2796,
          2811,
          2502,
          2666,
          2600,
          2863,
          2588,
          2692,
          2551,
          2530,
          2844,
          2404,
          2881,
          2331,
          2460,
          2797,
          2805,
          2531,
          2592,
          2830,
          2680,
          2509,
          2616,
          2869,
          2882,
          2493,
          2340,
          2483,
          2544,
          2788,
          2634,
          2623,
          2444,
          2898,
          2902,
          2934,
          2773,
          2590,
          2464,
          2252,
          2561,
          2701,
          2669,
          2635,
          2527,
          2580,
          2437,
          3030,
          2598,
          2279,
          2630,
          2624,
          2999,
          2346,
          2598,
          2365,
          2305,
          2625,
          2588,
          2915,
          2805,
          2939,
          2766,
          2743,
          2709,
          2535,
          2703,
          2399
        ],
        "WindowCenter": [
          796.0,
          797.0,
          798.0,
          802.0,
          801.0,
          799.0,
          799.0,
          797.0,
          797.0,
          797.0,
          797.0,
          795.0,
          795.0,
          799.0,
          795.0,
          796.0,
          796.0,
          795.0,
          797.0,
          800.0,
          798.0,
          798.0,
          794.0,
          796.0,
          798.0,
          795.0,
          796.0,
          798.0,
          796.0,
          797.0,
          796.0,
          795.0,
          796.0,
          795.0,
          796.0,
          799.0,
          797.0,
          796.0,
          798.0,
          796.0,
          796.0,
          797.0,
          796.0,
          795.0,
          796.0,
          797.0,
          798.0,
          796.0,
          798.0,
          796.0,
          796.0,
          802.0,
          796.0,
          794.0,
          795.0,
          796.0,
          797.0,
          799.0,
          797.0,
          800.0,
          799.0,
          799.0,
          801.0,
          799.0,
          797.0,
          799.0,
          797.0,
          798.0,
          795.0,
          800.0,
          799.0,
          797.0,
          798.0,
          797.0,
          796.0,
          795.0,
          794.0,
          799.0,
          796.0,
          796.0,
          800.0,
          800.0,
          801.0,
          796.0,
          802.0,
          799.0,
          796.0,
          799.0,
          798.0,
          799.0,
          799.0,
          796.0,
          799.0,
          798.0,
          800.0,
          798.0,
          795.0,
          797.0,
          798.0,
          797.0,
          799.0,
          797.0,
          797.0,
          800.0,
          800.0,
          796.0,
          797.0,
          802.0,
          800.0,
          801.0,
          797.0,
          799.0,
          797.0,
          800.0,
          797.0,
          799.0,
          800.0,
          798.0,
          800.0,
          800.0,
          799.0,
          799.0,
          802.0,
          801.0,
          797.0,
          796.0,
          797.0,
          798.0,
          797.0,
          798.0
        ],
        "WindowWidth": [
          1678.0,
          1679.0,
          1680.0,
          1692.0,
          1688.0,
          1685.0,
          1685.0,
          1680.0,
          1682.0,
          1679.0,
          1679.0,
          1673.0,
          1673.0,
          1685.0,
          1674.0,
          1677.0,
          1678.0,
          1674.0,
          1680.0,
          1686.0,
          1681.0,
          1681.0,
          1671.0,
          1677.0,
          1683.0,
          1673.0,
          1676.0,
          1682.0,
          1676.0,
          1678.0,
          1676.0,
          1674.0,
          1676.0,
          1675.0,
          1676.0,
          1685.0,
          1680.0,
          1676.0,
          1682.0,
          1678.0,
          1677.0,
          1679.0,
          1676.0,
          1675.0,
          1676.0,
          1679.0,
          1682.0,
          1678.0,
          1682.0,
          1676.0,
          1675.0,
          1692.0,
          1678.0,
          1672.0,
          1674.0,
          1678.0,
          1680.0,
          1684.0,
          1681.0,
          1686.0,
          1683.0,
          1682.0,
          1691.0,
          1685.0,
          1677.0,
          1685.0,
          1679.0,
          1682.0,
          1673.0,
          1688.0,
          1686.0,
          1678.0,
          1682.0,
          1678.0,
          1678.0,
          1673.0,
          1674.0,
          1683.0,
          1676.0,
          1678.0,
          1688.0,
          1685.0,
          1690.0,
          1678.0,
          1690.0,
          1684.0,
          1678.0,
          1682.0,
          1682.0,
          1683.0,
          1682.0,
          1678.0,
          1683.0,
          1682.0,
          1686.0,
          1683.0,
          1674.0,
          1678.0,
          1682.0,
          1679.0,
          1682.0,
          1679.0,
          1681.0,
          1686.0,
          1685.0,
          1678.0,
          1678.0,
          1691.0,
          1688.0,
          1689.0,
          1677.0,
          1683.0,
          1678.0,
          1687.0,
          1679.0,
          1684.0,
          1686.0,
          1681.0,
          1686.0,
          1687.0,
          1683.0,
          1684.0,
          1692.0,
          1688.0,
          1679.0,
          1678.0,
          1678.0,
          1680.0,
          1678.0,
          1682.0
        ]
      },
      "slices": {}
    }
  },
  "dummy_trs": 0,
  "dvars_nstd": 45.16548961085273,
  "dvars_std": 1.3970698135658914,
  "dvars_vstd": 1.075620186666667,
  "efc": 0.5834641652726783,
  "fber": 1340.5189208984375,
  "fd_mean": 0.60798900136396,
  "fd_num": 120,
  "fd_perc": 92.3076923076923,
  "fwhm_avg": 1.5962719264657368,
  "fwhm_x": 1.5282633333333333,
  "fwhm_y": 1.7503766666666667,
  "fwhm_z": 1.51017577939721,
  "gcor": 0.0256699,
  "gsr_x": -0.006571941077709198,
  "gsr_y": 0.03814220055937767,
  "provenance": {
    "md5sum": "85675c8f78d7e7045433e16eb1499b1d",
    "settings": {
      "fd_thres": 0.2,
      "testing": false
    },
    "software": "mriqc",
    "version": "22.0.1",
    "webapi_port": null,
    "webapi_url": "https://mriqc.nimh.nih.gov/api/v1"
  },
  "size_t": 130,
  "size_x": 64,
  "size_y": 64,
  "size_z": 34,
  "snr": 7.18524322946445,
  "spacing_tr": 2.3399999141693115,
  "spacing_x": 3.0,
  "spacing_y": 3.0,
  "spacing_z": 3.299999952316284,
  "summary_bg_k": 48.89947801867782,
  "summary_bg_mad": 8.25695428537818,
  "summary_bg_mean": 34.827205657958984,
  "summary_bg_median": 23.984615325927734,
  "summary_bg_n": 70540.0,
  "summary_bg_p05": 14.615385055541992,
  "summary_bg_p95": 87.03153839111333,
  "summary_bg_stdv": 39.69148254394531,
  "summary_fg_k": 3.0049386571277514,
  "summary_fg_mad": 120.32456283075973,
  "summary_fg_mean": 901.9667358398438,
  "summary_fg_median": 901.107666015625,
  "summary_fg_n": 35942.0,
  "summary_fg_p05": 721.1696350097657,
  "summary_fg_p95": 1089.5530639648437,
  "summary_fg_stdv": 125.40913391113281,
  "tsnr": 50.215034179156646
}