{
  "aor": 0.005338615384615385,
  "aqi": 0.018970319461538463,
  "bids_meta": {
    "AcquisitionMatrixPE": 64,
    "AcquisitionNumber": 1,
    "AcquisitionTime": "14:18:40.345000",
    "BandwidthPerPixelPhaseEncode": 24.038,
    "BaseResolution": 64,
    "BodyPartExamined": "HEAD",
    "ConsistencyInfo": "N4_VD13A_LATEST_20120616",
    "ConversionSoftware": "dcm2niix",
    "ConversionSoftwareVersion": "v1.0.20181125  GCC6.3.0",
    "DerivedVendorReportedEchoSpacing": 0.000650012,
    "DeviceSerialNumber": "45250",
    "DwellTime": 4.6e-06,
    "EchoTime": 0.033,
    "EchoTrainLength": 64,
    "EffectiveEchoSpacing": 0.000650012,
    "FlipAngle": 90,
    "ImageOrientationPatientDICOM": [
      0.999919,
      -0.00609073,
      -0.0111488,
      0.00349042,
      0.975519,
      -0.219888
    ],
    "ImageType": [
      "ORIGINAL",
      "PRIMARY",
      "M",
      "ND",
      "NORM",
      "MOSAIC"
    ],
    "ImagingFrequency": 123.22,
    "InPlanePhaseEncodingDirectionDICOM": "COL",
    "InstitutionAddress": "Kopernikusstr._26_Graz_Graz_AT_8010",
    "InstitutionName": "KFU",
    "InstitutionalDepartmentName": "Department",
    "MRAcquisitionType": "2D",
    "MagneticFieldStrength": 3,
    "Manufacturer": "Siemens",
    "ManufacturersModelName": "Skyra",
    "Modality": "MR",
    "PartialFourier": 1,
    "PatientPosition": "HFS",
    "PercentPhaseFOV": 100,
    "PhaseEncodingDirection": "j-",
    "PhaseEncodingSteps": 64,
    "PhaseResolution": 1,
    "PixelBandwidth": 1700,
    "ProcedureStepDescription": "KFU_Entw-Psy",
    "ProtocolName": "fMRI_1",
    "PulseSequenceDetails": "%SiemensSeq%_ep2d_pace",
    "ReceiveCoilActiveElements": "HE1-4",
    "ReceiveCoilName": "HeadNeck_20",
    "ReconMatrixPE": 64,
    "RepetitionTime": 2.34,
    "SAR": 0.192823,
    "ScanOptions": "FS",
    "ScanningSequence": "EP",
    "SequenceName": "_epfid2d1_64",
    "SequenceVariant": "SK",
    "SeriesDescription": "fMRI_1",
    "SeriesNumber": 3,
    "ShimSetting": [
      -1716,
      -3712,
      -4237,
      534,
      312,
      210,
      569,
      -276
    ],
    "SliceThickness": 3,
    "SliceTiming": [
      2.2525,
      2.1825,
      2.115,
      2.0475,
      1.9775,
      1.91,
      1.8425,
      1.775,
      1.705,
      1.6375,
      1.57,
      1.5,
      1.4325,
      1.365,
      1.2975,
      1.2275,
      1.16,
      1.0925,
      1.0225,
      0.955,
      0.8875,
      0.82,
      0.75,
      0.6825,
      0.615,
      0.545,
      0.4775,
      0.41,
      0.34,
      0.2725,
      0.205,
      0.1375,
      0.0675,
      0
    ],
    "SoftwareVersions": "syngo_MR_D13",
    "SpacingBetweenSlices": 3.3,
    "StationName": "FBMTMR1",
    "TaskName": "read",
    "TotalReadoutTime": 0.0409508,
    "TxRefAmp": 344.222,
    "dataset": "ds003126",
    "dcmmeta_affine": [
      [
        -2.999758005142212,
        0.01047126017510891,
        -0.04030996188521385,
        104.95884704589844
      ],
      [
        0.018272189423441887,
        2.9265568256378174,
        -0.7254425287246704,
        -107.10457611083984
      ],
      [
        -0.03344639390707016,
        0.659663200378418,
        3.219022750854492,
        -24.193849563598633
      ],
      [
        0.0,
        0.0,
        0.0,
        1.0
      ]
    ],
    "dcmmeta_reorient_transform": [
      [
        0.0,
        -1.0,
        0.0,
        63.0
      ],
      [
        1.0,
        0.0,
        0.0,
        0.0
      ],
      [
        0.0,
        0.0,
        1.0,
        0.0
      ],
      [
        0.0,
        0.0,
        0.0,
        1.0
      ]
    ],
    "dcmmeta_shape": [
      64,
      64,
      34,
      130
    ],
    "dcmmeta_slice_dim": 2,
    "dcmmeta_version": 0.6,
    "global": {
      "const": {
        "AcquisitionMatrix": [
          64,
          0,
          0,
          64
        ],
        "AngioFlag": "N",
        "BitsAllocated": 16,
        "BitsStored": 12,
        "BodyPartExamined": "HEAD",
        "Columns": 384,
        "EchoNumbers": 1,
        "EchoTime": 33.0,
        "EchoTrainLength": 64,
        "FlipAngle": 90.0,
        "HighBit": 11,
        "ImageOrientationPatient": [
          0.99991930039974,
          -0.0060907298663,
          -0.0111487980421,
          0.00349042010183,
          0.97551893998176,
          -0.2198877320461
        ],
        "ImagePositionPatient": [
          -587.25520250775,
          -542.59404105533,
          128.26246661236
        ],
        "ImageType": [
          "ORIGINAL",
          "PRIMARY",
          "M",
          "ND",
          "NORM",
          "MOSAIC"
        ],
        "ImagedNucleus": "1H",
        "ImagingFrequency": 123.220086,
        "InPlanePhaseEncodingDirection": "COL",
        "MRAcquisitionType": "2D",
        "MagneticFieldStrength": 3.0,
        "Manufacturer": "SIEMENS",
        "ManufacturerModelName": "Skyra",
        "Modality": "MR",
        "NumberOfAverages": 1.0,
        "NumberOfPhaseEncodingSteps": 64,
        "PercentPhaseFieldOfView": 100.0,
        "PercentSampling": 100.0,
        "PerformedProcedureStepStartTime": "141134.705000",
        "PhotometricInterpretation": "MONOCHROME2",
        "PixelBandwidth": 1700.0,
        "PixelRepresentation": 0,
        "PixelSpacing": [
          3.0,
          3.0
        ],
        "ProtocolName": "fMRI_1",
        "RepetitionTime": 2340.0,
        "Rows": 384,
        "SAR": 0.19282310902754,
        "SamplesPerPixel": 1,
        "ScanOptions": "FS",
        "ScanningSequence": "EP",
        "SequenceName": "*epfid2d1_64",
        "SequenceVariant": "SK",
        "SeriesDescription": "fMRI_1",
        "SeriesNumber": 3,
        "SeriesTime": "141852.097000",
        "SliceLocation": -1.3373402294863,
        "SliceThickness": 3.0,
        "SmallestImagePixelValue": 0,
        "SoftwareVersions": "syngo MR D13",
        "SpacingBetweenSlices": 3.2999999401284,
        "SpecificCharacterSet": "ISO_IR 100",
        "StudyID": "1",
        "StudyTime": "141134.658000",
        "TransmitCoilName": "Body",
        "VariableFlipAngleFlag": "N",
        "WindowCenterWidthExplanation": "Algo1",
        "dBdt": 0.0
      },
      "slices": {}
    },
    "modality": "bold",
    "run_id": 1,
    "session_id": "2",
    "subject_id": "047EPKL013064",
    "task_id": "read",
    "time": {
      "samples": {
        "AcquisitionNumber": [
          1,
          2,
          3,
          4,
          5,
          6,
          7,
          8,
          9,
          10,
          11,
          12,
          13,
          14,
          15,
          16,
          17,
          18,
          19,
          20,
          21,
          22,
          23,
          24,
          25,
          26,
          27,
          28,
          29,
          30,
          31,
          32,
          33,
          34,
          35,
          36,
          37,
          38,
          39,
          40,
          41,
          42,
          43,
          44,
          45,
          46,
          47,
          48,
          49,
          50,
          51,
          52,
          53,
          54,
          55,
          56,
          57,
          58,
          59,
          60,
          61,
          62,
          63,
          64,
          65,
          66,
          67,
          68,
          69,
          70,
          71,
          72,
          73,
          74,
          75,
          76,
          77,
          78,
          79,
          80,
          81,
          82,
          83,
          84,
          85,
          86,
          87,
          88,
          89,
          90,
          91,
          92,
          93,
          94,
          95,
          96,
          97,
          98,
          99,
          100,
          101,
          102,
          103,
          104,
          105,
          106,
          107,
          108,
          109,
          110,
          111,
          112,
          113,
          114,
          115,
          116,
          117,
          118,
          119,
          120,
          121,
          122,
          123,
          124,
          125,
          126,
          127,
          128,
          129,
          130
        ],
        "AcquisitionTime": [
          "141840.345000",
          "141842.685000",
          "141845.025000",
          "141847.365000",
          "141849.705000",
          "141852.045000",
          "141854.385000",
          "141856.725000",
          "141859.065000",
          "141901.405000",
          "141903.745000",
          "141906.085000",
          "141908.425000",
          "141910.765000",
          "141913.105000",
          "141915.445000",
          "141917.785000",
          "141920.125000",
          "141922.465000",
          "141924.805000",
          "141927.145000",
          "141929.485000",
          "141931.825000",
          "141934.165000",
          "141936.505000",
          "141938.845000",
          "141941.185000",
          "141943.525000",
          "141945.865000",
          "141948.205000",
          "141950.545000",
          "141952.885000",
          "141955.225000",
          "141957.565000",
          "141959.905000",
          "142002.245000",
          "142004.585000",
          "142006.925000",
          "142009.265000",
          "142011.605000",
          "142013.945000",
          "142016.285000",
          "142018.625000",
          "142020.965000",
          "142023.305000",
          "142025.645000",
          "142027.985000",
          "142030.325000",
          "142032.665000",
          "142035.005000",
          "142037.345000",
          "142039.685000",
          "142042.025000",
          "142044.365000",
          "142046.705000",
          "142049.045000",
          "142051.385000",
          "142053.725000",
          "142056.065000",
          "142058.405000",
          "142100.745000",
          "142103.085000",
          "142105.425000",
          "142107.765000",
          "142110.105000",
          "142112.445000",
          "142114.785000",
          "142117.125000",
          "142119.465000",
          "142121.805000",
          "142124.145000",
          "142126.485000",
          "142128.825000",
          "142131.165000",
          "142133.505000",
          "142135.845000",
          "142138.185000",
          "142140.525000",
          "142142.865000",
          "142145.205000",
          "142147.545000",
          "142149.885000",
          "142152.225000",
          "142154.565000",
          "142156.905000",
          "142159.245000",
          "142201.585000",
          "142203.925000",
          "142206.265000",
          "142208.605000",
          "142210.945000",
          "142213.285000",
          "142215.625000",
          "142217.965000",
          "142220.305000",
          "142222.645000",
          "142224.985000",
          "142227.325000",
          "142229.665000",
          "142232.005000",
          "142234.345000",
          "142236.685000",
          "142239.025000",
          "142241.365000",
          "142243.705000",
          "142246.045000",
          "142248.385000",
          "142250.725000",
          "142253.065000",
          "142255.405000",
          "142257.745000",
          "142300.085000",
          "142302.425000",
          "142304.765000",
          "142307.105000",
          "142309.445000",
          "142311.785000",
          "142314.125000",
          "142316.465000",
          "142318.805000",
          "142321.145000",
          "142323.485000",
          "142325.825000",
          "142328.165000",
          "142330.505000",
          "142332.845000",
          "142335.185000",
          "142337.525000",
          "142339.865000",
          "142342.205000"
        ],
        "ContentTime": [
          "141852.101000",
          "141852.105000",
          "141852.108000",
          "141852.110000",
          "141852.113000",
          "141952.095000",
          "141952.098000",
          "141952.103000",
          "141952.105000",
          "141952.108000",
          "141952.111000",
          "141952.114000",
          "141952.117000",
          "141952.119000",
          "141952.122000",
          "141952.125000",
          "141952.128000",
          "141952.131000",
          "141952.134000",
          "141952.137000",
          "141952.139000",
          "141952.142000",
          "141952.145000",
          "141952.148000",
          "141952.151000",
          "141952.153000",
          "141952.156000",
          "141952.159000",
          "141952.165000",
          "141952.168000",
          "141952.171000",
          "142052.093000",
          "142052.097000",
          "142052.099000",
          "142052.102000",
          "142052.105000",
          "142052.108000",
          "142052.110000",
          "142052.113000",
          "142052.116000",
          "142052.119000",
          "142052.122000",
          "142052.124000",
          "142052.127000",
          "142052.130000",
          "142052.133000",
          "142052.135000",
          "142052.138000",
          "142052.141000",
          "142052.143000",
          "142052.146000",
          "142052.149000",
          "142052.152000",
          "142052.154000",
          "142052.157000",
          "142052.160000",
          "142052.163000",
          "142152.094000",
          "142152.097000",
          "142152.100000",
          "142152.103000",
          "142152.106000",
          "142152.109000",
          "142152.112000",
          "142152.115000",
          "142152.117000",
          "142152.120000",
          "142152.123000",
          "142152.126000",
          "142152.129000",
          "142152.132000",
          "142152.134000",
          "142152.137000",
          "142152.140000",
          "142152.143000",
          "142152.146000",
          "142152.149000",
          "142152.151000",
          "142152.154000",
          "142152.157000",
          "142152.160000",
          "142152.163000",
          "142252.094000",
          "142252.098000",
          "142252.101000",
          "142252.103000",
          "142252.106000",
          "142252.109000",
          "142252.112000",
          "142252.115000",
          "142252.118000",
          "142252.121000",
          "142252.123000",
          "142252.126000",
          "142252.129000",
          "142252.132000",
          "142252.135000",
          "142252.138000",
          "142252.141000",
          "142252.144000",
          "142252.146000",
          "142252.149000",
          "142252.152000",
          "142252.155000",
          "142252.158000",
          "142252.161000",
          "142252.163000",
          "142252.167000",
          "142342.522000",
          "142342.525000",
          "142342.528000",
          "142342.531000",
          "142342.534000",
          "142342.541000",
          "142342.544000",
          "142342.548000",
          "142342.551000",
          "142342.554000",
          "142342.557000",
          "142342.559000",
          "142342.562000",
          "142342.565000",
          "142342.568000",
          "142342.571000",
          "142342.574000",
          "142342.576000",
          "142342.579000",
          "142342.582000",
          "142342.585000",
          "142342.587000"
        ],
        "InstanceCreationTime": [
          "141852.101000",
          "141852.105000",
          "141852.108000",
          "141852.110000",
          "141852.113000",
          "141952.095000",
          "141952.098000",
          "141952.103000",
          "141952.105000",
          "141952.108000",
          "141952.111000",
          "141952.114000",
          "141952.117000",
          "141952.119000",
          "141952.122000",
          "141952.125000",
          "141952.128000",
          "141952.131000",
          "141952.134000",
          "141952.137000",
          "141952.139000",
          "141952.142000",
          "141952.145000",
          "141952.148000",
          "141952.151000",
          "141952.153000",
          "141952.156000",
          "141952.159000",
          "141952.165000",
          "141952.168000",
          "141952.171000",
          "142052.093000",
          "142052.097000",
          "142052.099000",
          "142052.102000",
          "142052.105000",
          "142052.108000",
          "142052.110000",
          "142052.113000",
          "142052.116000",
          "142052.119000",
          "142052.122000",
          "142052.124000",
          "142052.127000",
          "142052.130000",
          "142052.133000",
          "142052.135000",
          "142052.138000",
          "142052.141000",
          "142052.143000",
          "142052.146000",
          "142052.149000",
          "142052.152000",
          "142052.154000",
          "142052.157000",
          "142052.160000",
          "142052.163000",
          "142152.094000",
          "142152.097000",
          "142152.100000",
          "142152.103000",
          "142152.106000",
          "142152.109000",
          "142152.112000",
          "142152.115000",
          "142152.117000",
          "142152.120000",
          "142152.123000",
          "142152.126000",
          "142152.129000",
          "142152.132000",
          "142152.134000",
          "142152.137000",
          "142152.140000",
          "142152.143000",
          "142152.146000",
          "142152.149000",
          "142152.151000",
          "142152.154000",
          "142152.157000",
          "142152.160000",
          "142152.163000",
          "142252.094000",
          "142252.098000",
          "142252.101000",
          "142252.103000",
          "142252.106000",
          "142252.109000",
          "142252.112000",
          "142252.115000",
          "142252.118000",
          "142252.121000",
          "142252.123000",
          "142252.126000",
          "142252.129000",
          "142252.132000",
          "142252.135000",
          "142252.138000",
          "142252.141000",
          "142252.144000",
          "142252.146000",
          "142252.149000",
          "142252.152000",
          "142252.155000",
          "142252.158000",
          "142252.161000",
          "142252.163000",
          "142252.167000",
          "142342.522000",
          "142342.525000",
          "142342.528000",
          "142342.531000",
          "142342.534000",
          "142342.541000",
          "142342.544000",
          "142342.548000",
          "142342.551000",
          "142342.554000",
          "142342.557000",
          "142342.559000",
          "142342.562000",
          "142342.565000",
          "142342.568000",
          "142342.571000",
          "142342.574000",
          "142342.576000",
          "142342.579000",
          "142342.582000",
          "142342.585000",
          "142342.587000"
        ],
        "InstanceNumber": [
          1,
          2,
          3,
          4,
          5,
          6,
          7,
          8,
          9,
          10,
          11,
          12,
          13,
          14,
          15,
          16,
          17,
          18,
          19,
          20,
          21,
          22,
          23,
          24,
          25,
          26,
          27,
          28,
          29,
          30,
          31,
          32,
          33,
          34,
          35,
          36,
          37,
          38,
          39,
          40,
          41,
          42,
          43,
          44,
          45,
          46,
          47,
          48,
          49,
          50,
          51,
          52,
          53,
          54,
          55,
          56,
          57,
          58,
          59,
          60,
          61,
          62,
          63,
          64,
          65,
          66,
          67,
          68,
          69,
          70,
          71,
          72,
          73,
          74,
          75,
          76,
          77,
          78,
          79,
          80,
          81,
          82,
          83,
          84,
          85,
          86,
          87,
          88,
          89,
          90,
          91,
          92,
          93,
          94,
          95,
          96,
          97,
          98,
          99,
          100,
          101,
          102,
          103,
          104,
          105,
          106,
          107,
          108,
          109,
          110,
          111,
          112,
          113,
          114,
          115,
          116,
          117,
          118,
          119,
          120,
          121,
          122,
          123,
          124,
          125,
          126,
          127,
          128,
          129,
          130
        ],
        "LargestImagePixelValue": [
          2176,
          2280,
          2087,
          1883,
          2129,
          1870,
          1758,
          2120,
          1709,
          2041,
          2247,
          1756,
          1980,
          1688,
          1848,
          2148,
          2202,
          1781,
          1784,
          1700,
          1828,
          2571,
          2773,
          1774,
          1764,
          1782,
          1797,
          1696,
          2412,
          2011,
          1712,
          1770,
          2230,
          1763,
          1717,
          2206,
          1879,
          1701,
          1738,
          1692,
          2417,
          1989,
          1706,
          2052,
          1841,
          2301,
          1768,
          1995,
          1802,
          1933,
          1844,
          1716,
          2357,
          1756,
          1773,
          1763,
          1746,
          1692,
          2146,
          1853,
          1808,
          2252,
          1776,
          1740,
          2354,
          1703,
          2273,
          1692,
          2254,
          2034,
          2255,
          1755,
          1907,
          1745,
          1836,
          1735,
          2201,
          2471,
          1762,
          1734,
          1664,
          2222,
          1983,
          2201,
          1757,
          1931,
          1747,
          2199,
          1777,
          2472,
          1653,
          1697,
          1816,
          1859,
          2076,
          2179,
          1913,
          1674,
          2423,
          2058,
          2330,
          2918,
          1924,
          1779,
          1946,
          1733,
          1722,
          1785,
          2289,
          2237,
          2693,
          1788,
          1687,
          1914,
          1685,
          2290,
          2098,
          2493,
          1860,
          1946,
          2177,
          2176,
          2011,
          2484,
          1886,
          1729,
          2048,
          1943,
          2087,
          2101
        ],
        "WindowCenter": [
          805.0,
          802.0,
          802.0,
          801.0,
          803.0,
          802.0,
          802.0,
          803.0,
          800.0,
          802.0,
          802.0,
          800.0,
          801.0,
          800.0,
          801.0,
          802.0,
          801.0,
          802.0,
          801.0,
          804.0,
          804.0,
          806.0,
          800.0,
          796.0,
          795.0,
          797.0,
          800.0,
          802.0,
          803.0,
          802.0,
          803.0,
          807.0,
          805.0,
          803.0,
          804.0,
          805.0,
          805.0,
          803.0,
          805.0,
          805.0,
          804.0,
          804.0,
          803.0,
          805.0,
          802.0,
          803.0,
          800.0,
          805.0,
          802.0,
          803.0,
          802.0,
          805.0,
          803.0,
          801.0,
          801.0,
          802.0,
          802.0,
          804.0,
          805.0,
          803.0,
          805.0,
          804.0,
          804.0,
          803.0,
          805.0,
          802.0,
          805.0,
          802.0,
          802.0,
          802.0,
          803.0,
          801.0,
          803.0,
          808.0,
          806.0,
          806.0,
          806.0,
          806.0,
          800.0,
          804.0,
          804.0,
          805.0,
          803.0,
          805.0,
          804.0,
          804.0,
          803.0,
          805.0,
          802.0,
          804.0,
          802.0,
          803.0,
          804.0,
          805.0,
          806.0,
          807.0,
          804.0,
          802.0,
          805.0,
          803.0,
          803.0,
          801.0,
          797.0,
          798.0,
          801.0,
          801.0,
          804.0,
          804.0,
          805.0,
          804.0,
          805.0,
          807.0,
          805.0,
          811.0,
          807.0,
          807.0,
          808.0,
          806.0,
          806.0,
          806.0,
          807.0,
          808.0,
          807.0,
          807.0,
          803.0,
          806.0,
          807.0,
          808.0,
          808.0,
          810.0
        ],
        "WindowWidth": [
          1726.0,
          1719.0,
          1718.0,
          1716.0,
          1721.0,
          1717.0,
          1717.0,
          1722.0,
          1712.0,
          1717.0,
          1717.0,
          1713.0,
          1716.0,
          1711.0,
          1715.0,
          1718.0,
          1714.0,
          1718.0,
          1716.0,
          1721.0,
          1725.0,
          1729.0,
          1712.0,
          1702.0,
          1698.0,
          1706.0,
          1713.0,
          1718.0,
          1722.0,
          1717.0,
          1718.0,
          1730.0,
          1728.0,
          1719.0,
          1722.0,
          1727.0,
          1723.0,
          1719.0,
          1724.0,
          1726.0,
          1726.0,
          1724.0,
          1720.0,
          1726.0,
          1717.0,
          1721.0,
          1711.0,
          1724.0,
          1716.0,
          1720.0,
          1716.0,
          1726.0,
          1721.0,
          1715.0,
          1714.0,
          1718.0,
          1718.0,
          1722.0,
          1727.0,
          1719.0,
          1724.0,
          1727.0,
          1721.0,
          1720.0,
          1726.0,
          1717.0,
          1726.0,
          1716.0,
          1718.0,
          1715.0,
          1719.0,
          1711.0,
          1720.0,
          1733.0,
          1728.0,
          1726.0,
          1728.0,
          1730.0,
          1710.0,
          1722.0,
          1720.0,
          1725.0,
          1720.0,
          1724.0,
          1723.0,
          1725.0,
          1720.0,
          1727.0,
          1715.0,
          1724.0,
          1716.0,
          1719.0,
          1722.0,
          1725.0,
          1728.0,
          1729.0,
          1723.0,
          1718.0,
          1728.0,
          1722.0,
          1721.0,
          1714.0,
          1703.0,
          1705.0,
          1713.0,
          1712.0,
          1722.0,
          1723.0,
          1727.0,
          1723.0,
          1727.0,
          1728.0,
          1724.0,
          1741.0,
          1732.0,
          1732.0,
          1733.0,
          1728.0,
          1728.0,
          1728.0,
          1731.0,
          1734.0,
          1732.0,
          1732.0,
          1720.0,
          1730.0,
          1733.0,
          1732.0,
          1732.0,
          1741.0
        ]
      },
      "slices": {}
    }
  },
  "dummy_trs": 0,
  "dvars_nstd": 42.264549713875994,
  "dvars_std": 1.25693257620155,
  "dvars_vstd": 1.0451648420155037,
  "efc": 0.5614289377948701,
  "fber": 1581.7264404296875,
  "fd_mean": 0.6079470656283923,
  "fd_num": 117,
  "fd_perc": 90.0,
  "fwhm_avg": 1.6421387951877369,
  "fwhm_x": 1.55786,
  "fwhm_y": 1.8510866666666665,
  "fwhm_z": 1.5174697188965438,
  "gcor": 0.0456754,
  "gsr_x": -0.01298573613166809,
  "gsr_y": 0.040203314274549484,
  "provenance": {
    "md5sum": "1a3ed6bd9b4318f6d68e85c51e65fca2",
    "settings": {
      "fd_thres": 0.2,
      "testing": false
    },
    "software": "mriqc",
    "version": "22.0.1",
    "webapi_port": null,
    "webapi_url": "https://mriqc.nimh.nih.gov/api/v1"
  },
  "size_t": 130,
  "size_x": 64,
  "size_y": 64,
  "size_z": 34,
  "snr": 6.7779605787577415,
  "spacing_tr": 2.3399999141693115,
  "spacing_x": 3.0,
  "spacing_y": 3.0,
  "spacing_z": 3.299999952316284,
  "summary_bg_k": 48.652423429548286,
  "summary_bg_mad": 8.177121553691338,
  "summary_bg_mean": 34.30727767944336,
  "summary_bg_median": 23.200000762939453,
  "summary_bg_n": 73817.0,
  "summary_bg_p05": 14.223076820373535,
  "summary_bg_p95": 91.81230926513665,
  "summary_bg_stdv": 39.24052047729492,
  "summary_fg_k": 2.078965128290595,
  "summary_fg_mad": 139.52432490400793,
  "summary_fg_mean": 946.7504272460938,
  "summary_fg_median": 944.6500244140625,
  "summary_fg_n": 32848.0,
  "summary_fg_p05": 738.2976806640625,
  "summary_fg_p95": 1155.0403747558594,
  "summary_fg_stdv": 139.36871337890625,
  "tsnr": 44.08230901323259
}