{
  "aor": 0.02018511627906977,
  "aqi": 0.025568497519379844,
  "bids_meta": {
    "AcquisitionMatrixPE": 64,
    "AcquisitionNumber": 1,
    "AcquisitionTime": "11:35:50.560000",
    "BandwidthPerPixelPhaseEncode": 24.038,
    "BaseResolution": 64,
    "BodyPartExamined": "HEAD",
    "ConsistencyInfo": "N4_VD13A_LATEST_20120616",
    "ConversionSoftware": "dcm2niix",
    "ConversionSoftwareVersion": "v1.0.20181125  GCC6.3.0",
    "DerivedVendorReportedEchoSpacing": 0.000650012,
    "DeviceSerialNumber": "45250",
    "DwellTime": 4.6e-06,
    "EchoTime": 0.033,
    "EchoTrainLength": 64,
    "EffectiveEchoSpacing": 0.000650012,
    "FlipAngle": 90,
    "ImageOrientationPatientDICOM": [
      0.999805,
      0.0138269,
      0.0141215,
      -0.0104703,
      0.976578,
      -0.21491
    ],
    "ImageType": [
      "ORIGINAL",
      "PRIMARY",
      "M",
      "ND",
      "NORM",
      "MOSAIC"
    ],
    "ImagingFrequency": 123.214,
    "InPlanePhaseEncodingDirectionDICOM": "COL",
    "InstitutionAddress": "Kopernikusstr._26_Graz_Graz_AT_8010",
    "InstitutionName": "KFU",
    "InstitutionalDepartmentName": "Department",
    "MRAcquisitionType": "2D",
    "MagneticFieldStrength": 3,
    "Manufacturer": "Siemens",
    "ManufacturersModelName": "Skyra",
    "Modality": "MR",
    "PartialFourier": 1,
    "PatientPosition": "HFS",
    "PercentPhaseFOV": 100,
    "PhaseEncodingDirection": "j-",
    "PhaseEncodingSteps": 64,
    "PhaseResolution": 1,
    "PixelBandwidth": 1700,
    "ProcedureStepDescription": "KFU_Entw-Psy",
    "ProtocolName": "fMRI_2",
    "PulseSequenceDetails": "%SiemensSeq%_ep2d_pace",
    "ReceiveCoilActiveElements": "HE1-4",
    "ReceiveCoilName": "HeadNeck_20",
    "ReconMatrixPE": 64,
    "RepetitionTime": 2.34,
    "SAR": 0.201133,
    "ScanOptions": "FS",
    "ScanningSequence": "EP",
    "SequenceName": "_epfid2d1_64",
    "SequenceVariant": "SK",
    "SeriesDescription": "fMRI_2",
    "SeriesNumber": 5,
    "ShimSetting": [
      -1535,
      -3719,
      -4221,
      553,
      427,
      65,
      131,
      -258
    ],
    "SliceThickness": 3,
    "SliceTiming": [
      2.2525,
      2.185,
      2.115,
      2.0475,
      1.98,
      1.9125,
      1.8425,
      1.775,
      1.7075,
      1.6375,
      1.57,
      1.5025,
      1.435,
      1.365,
      1.2975,
      1.23,
      1.16,
      1.0925,
      1.025,
      0.955,
      0.8875,
      0.82,
      0.7525,
      0.6825,
      0.615,
      0.5475,
      0.4775,
      0.41,
      0.3425,
      0.275,
      0.205,
      0.1375,
      0.07,
      0
    ],
    "SoftwareVersions": "syngo_MR_D13",
    "SpacingBetweenSlices": 3.3,
    "StationName": "FBMTMR1",
    "TaskName": "read",
    "TotalReadoutTime": 0.0409508,
    "TxRefAmp": 340.276,
    "dataset": "ds003126",
    "dcmmeta_affine": [
      [
        -2.9994139671325684,
        -0.03141077235341072,
        0.05531548336148262,
        96.22587585449219
      ],
      [
        -0.04148077219724655,
        2.9297330379486084,
        -0.7085779309272766,
        -109.9301528930664
      ],
      [
        0.04236442595720291,
        0.6447312235832214,
        3.2225544452667236,
        -18.36676597595215
      ],
      [
        0.0,
        0.0,
        0.0,
        1.0
      ]
    ],
    "dcmmeta_reorient_transform": [
      [
        0.0,
        -1.0,
        0.0,
        63.0
      ],
      [
        1.0,
        0.0,
        0.0,
        0.0
      ],
      [
        0.0,
        0.0,
        1.0,
        0.0
      ],
      [
        0.0,
        0.0,
        0.0,
        1.0
      ]
    ],
    "dcmmeta_shape": [
      64,
      64,
      34,
      129
    ],
    "dcmmeta_slice_dim": 2,
    "dcmmeta_version": 0.6,
    "global": {
      "const": {
        "AcquisitionMatrix": [
          64,
          0,
          0,
          64
        ],
        "AngioFlag": "N",
        "BitsAllocated": 16,
        "BitsStored": 12,
        "BodyPartExamined": "HEAD",
        "Columns": 384,
        "EchoNumbers": 1,
        "EchoTime": 33.0,
        "EchoTrainLength": 64,
        "FlipAngle": 90.0,
        "HighBit": 11,
        "ImageOrientationPatient": [
          0.99980468097526,
          0.01382692381998,
          0.01412147575978,
          -0.0104702574994,
          0.97657764066213,
          -0.214910412653
        ],
        "ImagePositionPatient": [
          -569.1275195885,
          -550.03720951584,
          118.62999189192
        ],
        "ImageType": [
          "ORIGINAL",
          "PRIMARY",
          "M",
          "ND",
          "NORM",
          "MOSAIC"
        ],
        "ImagedNucleus": "1H",
        "ImagingFrequency": 123.214464,
        "InPlanePhaseEncodingDirection": "COL",
        "MRAcquisitionType": "2D",
        "MagneticFieldStrength": 3.0,
        "Manufacturer": "SIEMENS",
        "ManufacturerModelName": "Skyra",
        "Modality": "MR",
        "NumberOfAverages": 1.0,
        "NumberOfPhaseEncodingSteps": 64,
        "PercentPhaseFieldOfView": 100.0,
        "PercentSampling": 100.0,
        "PerformedProcedureStepStartTime": "112356.647000",
        "PhotometricInterpretation": "MONOCHROME2",
        "PixelBandwidth": 1700.0,
        "PixelRepresentation": 0,
        "PixelSpacing": [
          3.0,
          3.0
        ],
        "ProtocolName": "fMRI_2",
        "RepetitionTime": 2340.0,
        "Rows": 384,
        "SAR": 0.20113290813828,
        "SamplesPerPixel": 1,
        "ScanOptions": "FS",
        "ScanningSequence": "EP",
        "SequenceName": "*epfid2d1_64",
        "SequenceVariant": "SK",
        "SeriesDescription": "fMRI_2",
        "SeriesNumber": 5,
        "SeriesTime": "113640.768000",
        "SliceLocation": 7.2815022676081,
        "SliceThickness": 3.0,
        "SmallestImagePixelValue": 0,
        "SoftwareVersions": "syngo MR D13",
        "SpacingBetweenSlices": 3.2999999763032,
        "SpecificCharacterSet": "ISO_IR 100",
        "StudyID": "1",
        "StudyTime": "112356.602000",
        "TransmitCoilName": "Body",
        "VariableFlipAngleFlag": "N",
        "WindowCenterWidthExplanation": "Algo1",
        "dBdt": 0.0
      },
      "slices": {}
    },
    "modality": "bold",
    "run_id": 2,
    "session_id": "2",
    "subject_id": "047EPKL013028",
    "task_id": "read",
    "time": {
      "samples": {
        "AcquisitionNumber": [
          1,
          2,
          3,
          4,
          5,
          6,
          7,
          8,
          9,
          10,
          11,
          12,
          13,
          14,
          15,
          16,
          17,
          18,
          19,
          20,
          21,
          22,
          23,
          24,
          25,
          26,
          27,
          28,
          29,
          30,
          31,
          32,
          33,
          34,
          35,
          36,
          37,
          38,
          39,
          40,
          41,
          42,
          43,
          44,
          45,
          46,
          47,
          48,
          49,
          50,
          51,
          52,
          53,
          54,
          55,
          56,
          57,
          58,
          59,
          60,
          61,
          62,
          63,
          64,
          65,
          66,
          67,
          68,
          69,
          70,
          71,
          72,
          73,
          74,
          75,
          76,
          77,
          78,
          79,
          80,
          81,
          82,
          83,
          84,
          85,
          86,
          87,
          88,
          89,
          90,
          91,
          92,
          93,
          94,
          95,
          96,
          97,
          98,
          99,
          100,
          101,
          102,
          103,
          104,
          105,
          106,
          107,
          108,
          109,
          110,
          111,
          112,
          113,
          114,
          115,
          116,
          117,
          118,
          119,
          120,
          121,
          122,
          123,
          124,
          125,
          126,
          127,
          128,
          129
        ],
        "AcquisitionTime": [
          "113550.560000",
          "113552.900000",
          "113555.240000",
          "113557.580000",
          "113559.920000",
          "113602.260000",
          "113604.600000",
          "113606.940000",
          "113609.280000",
          "113611.620000",
          "113613.960000",
          "113616.300000",
          "113618.640000",
          "113620.980000",
          "113623.320000",
          "113625.660000",
          "113628.000000",
          "113630.340000",
          "113632.680000",
          "113635.020000",
          "113637.360000",
          "113639.700000",
          "113642.040000",
          "113644.380000",
          "113646.720000",
          "113649.060000",
          "113651.400000",
          "113653.740000",
          "113656.080000",
          "113658.420000",
          "113700.760000",
          "113703.100000",
          "113705.440000",
          "113707.780000",
          "113710.120000",
          "113712.460000",
          "113714.800000",
          "113717.140000",
          "113719.480000",
          "113721.820000",
          "113724.160000",
          "113726.500000",
          "113728.840000",
          "113731.180000",
          "113733.520000",
          "113735.860000",
          "113738.200000",
          "113740.540000",
          "113742.880000",
          "113745.220000",
          "113747.560000",
          "113749.900000",
          "113752.240000",
          "113754.580000",
          "113756.920000",
          "113759.260000",
          "113801.600000",
          "113803.940000",
          "113806.280000",
          "113808.620000",
          "113810.960000",
          "113813.300000",
          "113815.640000",
          "113817.980000",
          "113820.320000",
          "113822.660000",
          "113825.000000",
          "113827.340000",
          "113829.680000",
          "113832.020000",
          "113834.360000",
          "113836.700000",
          "113839.040000",
          "113841.380000",
          "113843.720000",
          "113846.060000",
          "113848.400000",
          "113850.740000",
          "113853.080000",
          "113855.420000",
          "113857.760000",
          "113900.100000",
          "113902.440000",
          "113904.780000",
          "113907.120000",
          "113909.460000",
          "113911.800000",
          "113914.140000",
          "113916.480000",
          "113918.820000",
          "113921.160000",
          "113923.500000",
          "113925.840000",
          "113928.180000",
          "113930.520000",
          "113932.860000",
          "113935.200000",
          "113937.540000",
          "113939.880000",
          "113942.220000",
          "113944.560000",
          "113946.900000",
          "113949.240000",
          "113951.580000",
          "113953.920000",
          "113956.260000",
          "113958.600000",
          "114000.940000",
          "114003.280000",
          "114005.620000",
          "114007.960000",
          "114010.300000",
          "114012.640000",
          "114014.980000",
          "114017.320000",
          "114019.660000",
          "114022.000000",
          "114024.340000",
          "114026.680000",
          "114029.020000",
          "114031.360000",
          "114033.700000",
          "114036.040000",
          "114038.380000",
          "114040.720000",
          "114043.060000",
          "114045.400000",
          "114047.740000",
          "114050.080000"
        ],
        "ContentTime": [
          "113640.773000",
          "113640.777000",
          "113640.780000",
          "113640.782000",
          "113640.791000",
          "113640.793000",
          "113640.796000",
          "113640.799000",
          "113640.801000",
          "113640.804000",
          "113640.807000",
          "113640.810000",
          "113640.812000",
          "113640.815000",
          "113640.818000",
          "113640.820000",
          "113640.823000",
          "113640.826000",
          "113640.828000",
          "113640.831000",
          "113640.834000",
          "113640.836000",
          "113720.765000",
          "113720.769000",
          "113720.772000",
          "113720.774000",
          "113720.777000",
          "113720.780000",
          "113720.783000",
          "113720.786000",
          "113720.788000",
          "113720.791000",
          "113720.794000",
          "113720.797000",
          "113720.799000",
          "113720.802000",
          "113720.805000",
          "113720.807000",
          "113720.810000",
          "113820.764000",
          "113820.767000",
          "113820.770000",
          "113820.773000",
          "113820.776000",
          "113820.779000",
          "113820.781000",
          "113820.784000",
          "113820.787000",
          "113820.790000",
          "113820.793000",
          "113820.795000",
          "113820.798000",
          "113820.801000",
          "113820.804000",
          "113820.806000",
          "113820.809000",
          "113820.812000",
          "113820.815000",
          "113820.817000",
          "113820.820000",
          "113820.823000",
          "113820.825000",
          "113820.828000",
          "113820.831000",
          "113920.765000",
          "113920.768000",
          "113920.771000",
          "113920.774000",
          "113920.777000",
          "113920.780000",
          "113920.783000",
          "113920.785000",
          "113920.788000",
          "113920.791000",
          "113920.794000",
          "113920.797000",
          "113920.800000",
          "113920.803000",
          "113920.805000",
          "113920.808000",
          "113920.811000",
          "113920.814000",
          "113920.817000",
          "113920.819000",
          "113920.822000",
          "113920.825000",
          "113920.828000",
          "113920.831000",
          "113920.833000",
          "113920.836000",
          "114020.766000",
          "114020.769000",
          "114020.772000",
          "114020.775000",
          "114020.778000",
          "114020.780000",
          "114020.783000",
          "114020.786000",
          "114020.789000",
          "114020.791000",
          "114020.794000",
          "114020.797000",
          "114020.799000",
          "114020.802000",
          "114020.805000",
          "114020.807000",
          "114020.818000",
          "114020.820000",
          "114020.823000",
          "114020.825000",
          "114020.828000",
          "114020.831000",
          "114020.833000",
          "114020.836000",
          "114020.838000",
          "114020.841000",
          "114052.838000",
          "114052.842000",
          "114052.845000",
          "114052.851000",
          "114052.854000",
          "114052.860000",
          "114052.864000",
          "114052.869000",
          "114052.873000",
          "114052.878000",
          "114052.882000",
          "114052.886000",
          "114052.889000"
        ],
        "InstanceCreationTime": [
          "113640.773000",
          "113640.777000",
          "113640.780000",
          "113640.782000",
          "113640.791000",
          "113640.793000",
          "113640.796000",
          "113640.799000",
          "113640.801000",
          "113640.804000",
          "113640.807000",
          "113640.810000",
          "113640.812000",
          "113640.815000",
          "113640.818000",
          "113640.820000",
          "113640.823000",
          "113640.826000",
          "113640.828000",
          "113640.831000",
          "113640.834000",
          "113640.836000",
          "113720.765000",
          "113720.769000",
          "113720.772000",
          "113720.774000",
          "113720.777000",
          "113720.780000",
          "113720.783000",
          "113720.786000",
          "113720.788000",
          "113720.791000",
          "113720.794000",
          "113720.797000",
          "113720.799000",
          "113720.802000",
          "113720.805000",
          "113720.807000",
          "113720.810000",
          "113820.764000",
          "113820.767000",
          "113820.770000",
          "113820.773000",
          "113820.776000",
          "113820.779000",
          "113820.781000",
          "113820.784000",
          "113820.787000",
          "113820.790000",
          "113820.793000",
          "113820.795000",
          "113820.798000",
          "113820.801000",
          "113820.804000",
          "113820.806000",
          "113820.809000",
          "113820.812000",
          "113820.815000",
          "113820.817000",
          "113820.820000",
          "113820.823000",
          "113820.825000",
          "113820.828000",
          "113820.831000",
          "113920.765000",
          "113920.768000",
          "113920.771000",
          "113920.774000",
          "113920.777000",
          "113920.780000",
          "113920.783000",
          "113920.785000",
          "113920.788000",
          "113920.791000",
          "113920.794000",
          "113920.797000",
          "113920.800000",
          "113920.803000",
          "113920.805000",
          "113920.808000",
          "113920.811000",
          "113920.814000",
          "113920.817000",
          "113920.819000",
          "113920.822000",
          "113920.825000",
          "113920.828000",
          "113920.831000",
          "113920.833000",
          "113920.836000",
          "114020.766000",
          "114020.769000",
          "114020.772000",
          "114020.775000",
          "114020.778000",
          "114020.780000",
          "114020.783000",
          "114020.786000",
          "114020.789000",
          "114020.791000",
          "114020.794000",
          "114020.797000",
          "114020.799000",
          "114020.802000",
          "114020.805000",
          "114020.807000",
          "114020.818000",
          "114020.820000",
          "114020.823000",
          "114020.825000",
          "114020.828000",
          "114020.831000",
          "114020.833000",
          "114020.836000",
          "114020.838000",
          "114020.841000",
          "114052.838000",
          "114052.842000",
          "114052.845000",
          "114052.851000",
          "114052.854000",
          "114052.860000",
          "114052.864000",
          "114052.869000",
          "114052.873000",
          "114052.878000",
          "114052.882000",
          "114052.886000",
          "114052.889000"
        ],
        "InstanceNumber": [
          1,
          2,
          3,
          4,
          5,
          6,
          7,
          8,
          9,
          10,
          11,
          12,
          13,
          14,
          15,
          16,
          17,
          18,
          19,
          20,
          21,
          22,
          23,
          24,
          25,
          26,
          27,
          28,
          29,
          30,
          31,
          32,
          33,
          34,
          35,
          36,
          37,
          38,
          39,
          40,
          41,
          42,
          43,
          44,
          45,
          46,
          47,
          48,
          49,
          50,
          51,
          52,
          53,
          54,
          55,
          56,
          57,
          58,
          59,
          60,
          61,
          62,
          63,
          64,
          65,
          66,
          67,
          68,
          69,
          70,
          71,
          72,
          73,
          74,
          75,
          76,
          77,
          78,
          79,
          80,
          81,
          82,
          83,
          84,
          85,
          86,
          87,
          88,
          89,
          90,
          91,
          92,
          93,
          94,
          95,
          96,
          97,
          98,
          99,
          100,
          101,
          102,
          103,
          104,
          105,
          106,
          107,
          108,
          109,
          110,
          111,
          112,
          113,
          114,
          115,
          116,
          117,
          118,
          119,
          120,
          121,
          122,
          123,
          124,
          125,
          126,
          127,
          128,
          129
        ],
        "LargestImagePixelValue": [
          2117,
          2010,
          2112,
          2865,
          2070,
          2048,
          2147,
          2281,
          2111,
          2049,
          2195,
          2074,
          2309,
          2033,
          2057,
          2044,
          2016,
          2169,
          1987,
          2072,
          2129,
          2062,
          1959,
          2302,
          1970,
          2261,
          2016,
          2060,
          2013,
          2053,
          1980,
          2372,
          2037,
          2138,
          1962,
          2142,
          2023,
          1992,
          2248,
          2072,
          2047,
          2079,
          1992,
          1932,
          2163,
          3098,
          2619,
          2944,
          2479,
          2145,
          2138,
          1985,
          1969,
          2016,
          2044,
          2058,
          2056,
          2077,
          2003,
          2117,
          2027,
          2136,
          2143,
          2434,
          2013,
          1988,
          2209,
          2039,
          2061,
          2520,
          2264,
          1976,
          2114,
          2066,
          2274,
          2226,
          2461,
          1986,
          2022,
          2012,
          1981,
          2061,
          2004,
          2042,
          2169,
          2038,
          2019,
          2422,
          2048,
          2525,
          2060,
          2041,
          2080,
          2427,
          2152,
          2017,
          2068,
          2083,
          2355,
          3088,
          2553,
          2216,
          1964,
          2010,
          2769,
          2009,
          2012,
          2048,
          2009,
          1938,
          2044,
          2870,
          2031,
          1962,
          2018,
          1986,
          2106,
          2003,
          2029,
          2054,
          2016,
          2048,
          1991,
          2028,
          2141,
          2032,
          2051,
          2271,
          2104
        ],
        "WindowCenter": [
          880.0,
          877.0,
          878.0,
          878.0,
          876.0,
          875.0,
          878.0,
          876.0,
          870.0,
          873.0,
          874.0,
          872.0,
          872.0,
          876.0,
          874.0,
          877.0,
          876.0,
          875.0,
          873.0,
          875.0,
          878.0,
          880.0,
          877.0,
          874.0,
          874.0,
          876.0,
          873.0,
          876.0,
          874.0,
          881.0,
          876.0,
          878.0,
          874.0,
          881.0,
          876.0,
          874.0,
          873.0,
          877.0,
          878.0,
          881.0,
          879.0,
          884.0,
          880.0,
          880.0,
          876.0,
          866.0,
          872.0,
          864.0,
          858.0,
          869.0,
          861.0,
          865.0,
          867.0,
          870.0,
          875.0,
          875.0,
          875.0,
          876.0,
          874.0,
          877.0,
          876.0,
          875.0,
          877.0,
          879.0,
          875.0,
          876.0,
          877.0,
          878.0,
          879.0,
          879.0,
          878.0,
          876.0,
          878.0,
          880.0,
          877.0,
          875.0,
          873.0,
          874.0,
          875.0,
          878.0,
          877.0,
          877.0,
          878.0,
          878.0,
          879.0,
          878.0,
          878.0,
          877.0,
          876.0,
          875.0,
          874.0,
          876.0,
          877.0,
          879.0,
          876.0,
          877.0,
          881.0,
          877.0,
          875.0,
          870.0,
          866.0,
          876.0,
          868.0,
          873.0,
          875.0,
          874.0,
          872.0,
          879.0,
          875.0,
          876.0,
          879.0,
          880.0,
          871.0,
          877.0,
          878.0,
          879.0,
          877.0,
          877.0,
          876.0,
          876.0,
          876.0,
          881.0,
          878.0,
          879.0,
          878.0,
          881.0,
          884.0,
          879.0,
          874.0
        ],
        "WindowWidth": [
          1839.0,
          1831.0,
          1832.0,
          1833.0,
          1826.0,
          1827.0,
          1838.0,
          1829.0,
          1825.0,
          1823.0,
          1823.0,
          1816.0,
          1819.0,
          1828.0,
          1822.0,
          1830.0,
          1827.0,
          1824.0,
          1819.0,
          1824.0,
          1833.0,
          1835.0,
          1829.0,
          1826.0,
          1822.0,
          1826.0,
          1819.0,
          1829.0,
          1823.0,
          1840.0,
          1828.0,
          1832.0,
          1822.0,
          1841.0,
          1829.0,
          1823.0,
          1821.0,
          1830.0,
          1832.0,
          1841.0,
          1836.0,
          1846.0,
          1847.0,
          1836.0,
          1831.0,
          1815.0,
          1820.0,
          1793.0,
          1781.0,
          1811.0,
          1788.0,
          1800.0,
          1805.0,
          1814.0,
          1823.0,
          1825.0,
          1823.0,
          1830.0,
          1823.0,
          1832.0,
          1828.0,
          1824.0,
          1831.0,
          1837.0,
          1826.0,
          1827.0,
          1834.0,
          1833.0,
          1835.0,
          1837.0,
          1833.0,
          1827.0,
          1830.0,
          1841.0,
          1830.0,
          1826.0,
          1819.0,
          1823.0,
          1826.0,
          1832.0,
          1832.0,
          1832.0,
          1835.0,
          1833.0,
          1836.0,
          1834.0,
          1832.0,
          1829.0,
          1828.0,
          1826.0,
          1823.0,
          1830.0,
          1830.0,
          1836.0,
          1829.0,
          1827.0,
          1839.0,
          1835.0,
          1834.0,
          1808.0,
          1797.0,
          1828.0,
          1805.0,
          1823.0,
          1826.0,
          1820.0,
          1815.0,
          1836.0,
          1824.0,
          1829.0,
          1839.0,
          1837.0,
          1814.0,
          1831.0,
          1833.0,
          1834.0,
          1831.0,
          1827.0,
          1828.0,
          1827.0,
          1828.0,
          1844.0,
          1833.0,
          1834.0,
          1831.0,
          1841.0,
          1850.0,
          1838.0,
          1827.0
        ]
      },
      "slices": {}
    }
  },
  "dummy_trs": 0,
  "dvars_nstd": 49.76643936320312,
  "dvars_std": 1.4513188671875001,
  "dvars_vstd": 1.2004850903125002,
  "efc": 0.6192635595915914,
  "fber": 1643.2987060546875,
  "fd_mean": 0.8843170762311928,
  "fd_num": 110,
  "fd_perc": 85.27131782945736,
  "fwhm_avg": 1.7483271796107607,
  "fwhm_x": 1.68361,
  "fwhm_y": 1.9225199999999998,
  "fwhm_z": 1.6388515388322822,
  "gcor": 0.0733079,
  "gsr_x": 0.0003675625775940716,
  "gsr_y": 0.03940490633249283,
  "provenance": {
    "md5sum": "27e54b786ea058b2be47d2aa37763060",
    "settings": {
      "fd_thres": 0.2,
      "testing": false
    },
    "software": "mriqc",
    "version": "22.0.1",
    "webapi_port": null,
    "webapi_url": "https://mriqc.nimh.nih.gov/api/v1"
  },
  "size_t": 129,
  "size_x": 64,
  "size_y": 64,
  "size_z": 34,
  "snr": 6.384164855544917,
  "spacing_tr": 2.3399999141693115,
  "spacing_x": 3.0,
  "spacing_y": 3.0,
  "spacing_z": 3.299999952316284,
  "summary_bg_k": 36.576986548555276,
  "summary_bg_mad": 9.918493692185592,
  "summary_bg_mean": 37.02714920043945,
  "summary_bg_median": 23.054264068603516,
  "summary_bg_n": 62897.0,
  "summary_bg_p05": 12.426356315612793,
  "summary_bg_p95": 107.89457244873043,
  "summary_bg_stdv": 48.360015869140625,
  "summary_fg_k": 2.460058167213888,
  "summary_fg_mad": 143.8124151950434,
  "summary_fg_mean": 972.3055419921875,
  "summary_fg_median": 962.844970703125,
  "summary_fg_n": 42651.0,
  "summary_fg_p05": 767.2402954101562,
  "summary_fg_p95": 1213.3565673828125,
  "summary_fg_stdv": 150.81591796875,
  "tsnr": 38.10126197361387
}