{
  "aor": 0.0030812698412698404,
  "aqi": 0.015246314206349205,
  "bids_meta": {
    "AcquisitionMatrixPE": 64,
    "AcquisitionNumber": 1,
    "AcquisitionTime": "11:39:27.097500",
    "BandwidthPerPixelPhaseEncode": 24.038,
    "BaseResolution": 64,
    "BodyPartExamined": "HEAD",
    "ConsistencyInfo": "N4_VD13A_LATEST_20120616",
    "ConversionSoftware": "dcm2niix",
    "ConversionSoftwareVersion": "v1.0.20181125  GCC6.3.0",
    "DerivedVendorReportedEchoSpacing": 0.000650012,
    "DeviceSerialNumber": "45250",
    "DwellTime": 4.6e-06,
    "EchoTime": 0.033,
    "EchoTrainLength": 64,
    "EffectiveEchoSpacing": 0.000650012,
    "FlipAngle": 90,
    "ImageOrientationPatientDICOM": [
      0.997659,
      0.0651683,
      -0.0207169,
      -0.0680136,
      0.977055,
      -0.201837
    ],
    "ImageType": [
      "ORIGINAL",
      "PRIMARY",
      "M",
      "ND",
      "NORM",
      "MOSAIC"
    ],
    "ImagingFrequency": 123.215,
    "InPlanePhaseEncodingDirectionDICOM": "COL",
    "InstitutionAddress": "Kopernikusstr._26_Graz_Graz_AT_8010",
    "InstitutionName": "KFU",
    "InstitutionalDepartmentName": "Department",
    "MRAcquisitionType": "2D",
    "MagneticFieldStrength": 3,
    "Manufacturer": "Siemens",
    "ManufacturersModelName": "Skyra",
    "Modality": "MR",
    "PartialFourier": 1,
    "PatientPosition": "HFS",
    "PercentPhaseFOV": 100,
    "PhaseEncodingDirection": "j-",
    "PhaseEncodingSteps": 64,
    "PhaseResolution": 1,
    "PixelBandwidth": 1700,
    "ProcedureStepDescription": "KFU_Entw-Psy",
    "ProtocolName": "fMRI_2",
    "PulseSequenceDetails": "%SiemensSeq%_ep2d_pace",
    "ReceiveCoilActiveElements": "HE1-4",
    "ReceiveCoilName": "HeadNeck_20",
    "ReconMatrixPE": 64,
    "RepetitionTime": 2.34,
    "SAR": 0.166137,
    "ScanOptions": "FS",
    "ScanningSequence": "EP",
    "SequenceName": "_epfid2d1_64",
    "SequenceVariant": "SK",
    "SeriesDescription": "fMRI_2",
    "SeriesNumber": 5,
    "ShimSetting": [
      -1498,
      -3591,
      -4467,
      236,
      590,
      41,
      -186,
      -301
    ],
    "SliceThickness": 3,
    "SliceTiming": [
      2.25,
      2.1825,
      2.115,
      2.045,
      1.9775,
      1.91,
      1.8425,
      1.7725,
      1.705,
      1.6375,
      1.5675,
      1.5,
      1.4325,
      1.365,
      1.295,
      1.2275,
      1.16,
      1.09,
      1.0225,
      0.955,
      0.885,
      0.8175,
      0.75,
      0.6825,
      0.6125,
      0.545,
      0.4775,
      0.4075,
      0.34,
      0.2725,
      0.205,
      0.135,
      0.0675,
      0
    ],
    "SoftwareVersions": "syngo_MR_D13",
    "SpacingBetweenSlices": 3.3,
    "StationName": "FBMTMR1",
    "TaskName": "read",
    "TotalReadoutTime": 0.0409508,
    "TxRefAmp": 324.749,
    "dataset": "ds003126",
    "dcmmeta_affine": [
      [
        -2.9929776191711426,
        -0.20404087007045746,
        -0.023390984162688255,
        101.43888092041016
      ],
      [
        -0.19550485908985138,
        2.931164264678955,
        -0.6691523790359497,
        -101.39359283447266
      ],
      [
        -0.062150683254003525,
        0.6055105924606323,
        3.2313601970672607,
        -38.06526184082031
      ],
      [
        0.0,
        0.0,
        0.0,
        1.0
      ]
    ],
    "dcmmeta_reorient_transform": [
      [
        0.0,
        -1.0,
        0.0,
        63.0
      ],
      [
        1.0,
        0.0,
        0.0,
        0.0
      ],
      [
        0.0,
        0.0,
        1.0,
        0.0
      ],
      [
        0.0,
        0.0,
        0.0,
        1.0
      ]
    ],
    "dcmmeta_shape": [
      64,
      64,
      34,
      126
    ],
    "dcmmeta_slice_dim": 2,
    "dcmmeta_version": 0.6,
    "global": {
      "const": {
        "AcquisitionMatrix": [
          64,
          0,
          0,
          64
        ],
        "AngioFlag": "N",
        "BitsAllocated": 16,
        "BitsStored": 12,
        "BodyPartExamined": "HEAD",
        "Columns": 384,
        "EchoNumbers": 1,
        "EchoTime": 33.0,
        "EchoTrainLength": 64,
        "FlipAngle": 90.0,
        "HighBit": 11,
        "ImageOrientationPatient": [
          0.99765921271217,
          0.06516828676395,
          -0.0207168938501,
          -0.0680136239279,
          0.97705477030692,
          -0.2018368717075
        ],
        "ImagePositionPatient": [
          -534.8141882761,
          -583.53682379884,
          106.90771624513
        ],
        "ImageType": [
          "ORIGINAL",
          "PRIMARY",
          "M",
          "ND",
          "NORM",
          "MOSAIC"
        ],
        "ImagedNucleus": "1H",
        "ImagingFrequency": 123.214559,
        "InPlanePhaseEncodingDirection": "COL",
        "MRAcquisitionType": "2D",
        "MagneticFieldStrength": 3.0,
        "Manufacturer": "SIEMENS",
        "ManufacturerModelName": "Skyra",
        "Modality": "MR",
        "NumberOfAverages": 1.0,
        "NumberOfPhaseEncodingSteps": 64,
        "PercentPhaseFieldOfView": 100.0,
        "PercentSampling": 100.0,
        "PerformedProcedureStepStartTime": "112625.922000",
        "PhotometricInterpretation": "MONOCHROME2",
        "PixelBandwidth": 1700.0,
        "PixelRepresentation": 0,
        "PixelSpacing": [
          3.0,
          3.0
        ],
        "ProtocolName": "fMRI_2",
        "RepetitionTime": 2340.0,
        "Rows": 384,
        "SAR": 0.16613689645558,
        "SamplesPerPixel": 1,
        "ScanOptions": "FS",
        "ScanningSequence": "EP",
        "SequenceName": "*epfid2d1_64",
        "SequenceVariant": "SK",
        "SeriesDescription": "fMRI_2",
        "SeriesNumber": 5,
        "SeriesTime": "114027.775000",
        "SliceLocation": -17.43259156217,
        "SliceThickness": 3.0,
        "SmallestImagePixelValue": 0,
        "SoftwareVersions": "syngo MR D13",
        "SpacingBetweenSlices": 3.3000000320135,
        "SpecificCharacterSet": "ISO_IR 100",
        "StudyID": "1",
        "StudyTime": "112625.878000",
        "TransmitCoilName": "Body",
        "VariableFlipAngleFlag": "N",
        "WindowCenterWidthExplanation": "Algo1",
        "dBdt": 0.0
      },
      "slices": {}
    },
    "modality": "bold",
    "run_id": 2,
    "session_id": "2",
    "subject_id": "047EPKL011012",
    "task_id": "read",
    "time": {
      "samples": {
        "AcquisitionNumber": [
          1,
          2,
          3,
          4,
          5,
          6,
          7,
          8,
          9,
          10,
          11,
          12,
          13,
          14,
          15,
          16,
          17,
          18,
          19,
          20,
          21,
          22,
          23,
          24,
          25,
          26,
          27,
          28,
          29,
          30,
          31,
          32,
          33,
          34,
          35,
          36,
          37,
          38,
          39,
          40,
          41,
          42,
          43,
          44,
          45,
          46,
          47,
          48,
          49,
          50,
          51,
          52,
          53,
          54,
          55,
          56,
          57,
          58,
          59,
          60,
          61,
          62,
          63,
          64,
          65,
          66,
          67,
          68,
          69,
          70,
          71,
          72,
          73,
          74,
          75,
          76,
          77,
          78,
          79,
          80,
          81,
          82,
          83,
          84,
          85,
          86,
          87,
          88,
          89,
          90,
          91,
          92,
          93,
          94,
          95,
          96,
          97,
          98,
          99,
          100,
          101,
          102,
          103,
          104,
          105,
          106,
          107,
          108,
          109,
          110,
          111,
          112,
          113,
          114,
          115,
          116,
          117,
          118,
          119,
          120,
          121,
          122,
          123,
          124,
          125,
          126
        ],
        "AcquisitionTime": [
          "113927.097500",
          "113929.437500",
          "113931.777500",
          "113934.117500",
          "113936.457500",
          "113938.797500",
          "113941.137500",
          "113943.477500",
          "113945.817500",
          "113948.157500",
          "113950.497500",
          "113952.837500",
          "113955.177500",
          "113957.517500",
          "113959.857500",
          "114002.197500",
          "114004.537500",
          "114006.877500",
          "114009.217500",
          "114011.557500",
          "114013.897500",
          "114016.237500",
          "114018.577500",
          "114020.917500",
          "114023.257500",
          "114025.597500",
          "114027.937500",
          "114030.277500",
          "114032.617500",
          "114034.957500",
          "114037.297500",
          "114039.637500",
          "114041.977500",
          "114044.317500",
          "114046.657500",
          "114048.997500",
          "114051.337500",
          "114053.677500",
          "114056.017500",
          "114058.357500",
          "114100.697500",
          "114103.037500",
          "114105.377500",
          "114107.717500",
          "114110.057500",
          "114112.397500",
          "114114.737500",
          "114117.077500",
          "114119.417500",
          "114121.757500",
          "114124.097500",
          "114126.437500",
          "114128.777500",
          "114131.117500",
          "114133.457500",
          "114135.797500",
          "114138.137500",
          "114140.477500",
          "114142.817500",
          "114145.157500",
          "114147.497500",
          "114149.837500",
          "114152.177500",
          "114154.517500",
          "114156.857500",
          "114159.197500",
          "114201.537500",
          "114203.877500",
          "114206.217500",
          "114208.557500",
          "114210.897500",
          "114213.237500",
          "114215.577500",
          "114217.917500",
          "114220.257500",
          "114222.597500",
          "114224.937500",
          "114227.277500",
          "114229.617500",
          "114231.957500",
          "114234.297500",
          "114236.637500",
          "114238.977500",
          "114241.317500",
          "114243.657500",
          "114245.997500",
          "114248.337500",
          "114250.677500",
          "114253.017500",
          "114255.357500",
          "114257.697500",
          "114300.037500",
          "114302.377500",
          "114304.717500",
          "114307.057500",
          "114309.397500",
          "114311.737500",
          "114314.077500",
          "114316.417500",
          "114318.757500",
          "114321.097500",
          "114323.437500",
          "114325.777500",
          "114328.117500",
          "114330.457500",
          "114332.797500",
          "114335.137500",
          "114337.477500",
          "114339.817500",
          "114342.157500",
          "114344.497500",
          "114346.837500",
          "114349.177500",
          "114351.517500",
          "114353.857500",
          "114356.197500",
          "114358.537500",
          "114400.877500",
          "114403.217500",
          "114405.557500",
          "114407.897500",
          "114410.237500",
          "114412.577500",
          "114414.917500",
          "114417.257500",
          "114419.597500"
        ],
        "ContentTime": [
          "114027.779000",
          "114027.783000",
          "114027.786000",
          "114027.788000",
          "114027.791000",
          "114027.794000",
          "114027.796000",
          "114027.799000",
          "114027.802000",
          "114027.804000",
          "114027.807000",
          "114027.810000",
          "114027.813000",
          "114027.815000",
          "114027.818000",
          "114027.821000",
          "114027.824000",
          "114027.827000",
          "114027.829000",
          "114027.832000",
          "114027.835000",
          "114027.838000",
          "114027.841000",
          "114027.843000",
          "114027.846000",
          "114027.849000",
          "114127.773000",
          "114127.776000",
          "114127.778000",
          "114127.781000",
          "114127.784000",
          "114127.787000",
          "114127.789000",
          "114127.792000",
          "114127.795000",
          "114127.797000",
          "114127.800000",
          "114127.802000",
          "114127.805000",
          "114127.807000",
          "114127.810000",
          "114127.813000",
          "114127.816000",
          "114127.818000",
          "114127.821000",
          "114127.823000",
          "114127.826000",
          "114127.829000",
          "114127.831000",
          "114127.834000",
          "114127.837000",
          "114127.839000",
          "114227.772000",
          "114227.775000",
          "114227.778000",
          "114227.781000",
          "114227.783000",
          "114227.786000",
          "114227.789000",
          "114227.792000",
          "114227.795000",
          "114227.798000",
          "114227.800000",
          "114227.803000",
          "114227.806000",
          "114227.809000",
          "114227.812000",
          "114227.814000",
          "114227.817000",
          "114227.820000",
          "114227.823000",
          "114227.826000",
          "114227.829000",
          "114227.832000",
          "114227.835000",
          "114227.838000",
          "114227.840000",
          "114227.843000",
          "114327.774000",
          "114327.777000",
          "114327.780000",
          "114327.783000",
          "114327.785000",
          "114327.788000",
          "114327.790000",
          "114327.793000",
          "114327.800000",
          "114327.803000",
          "114327.806000",
          "114327.808000",
          "114327.811000",
          "114327.813000",
          "114327.816000",
          "114327.819000",
          "114327.821000",
          "114327.824000",
          "114327.827000",
          "114327.829000",
          "114327.833000",
          "114327.835000",
          "114327.838000",
          "114327.841000",
          "114327.844000",
          "114420.523000",
          "114420.526000",
          "114420.529000",
          "114420.532000",
          "114420.535000",
          "114420.537000",
          "114420.541000",
          "114420.546000",
          "114420.550000",
          "114420.554000",
          "114420.556000",
          "114420.559000",
          "114420.562000",
          "114420.565000",
          "114420.568000",
          "114420.571000",
          "114420.574000",
          "114420.577000",
          "114420.580000",
          "114420.583000",
          "114420.586000",
          "114420.589000",
          "114420.592000"
        ],
        "InstanceCreationTime": [
          "114027.779000",
          "114027.783000",
          "114027.786000",
          "114027.788000",
          "114027.791000",
          "114027.794000",
          "114027.796000",
          "114027.799000",
          "114027.802000",
          "114027.804000",
          "114027.807000",
          "114027.810000",
          "114027.813000",
          "114027.815000",
          "114027.818000",
          "114027.821000",
          "114027.824000",
          "114027.827000",
          "114027.829000",
          "114027.832000",
          "114027.835000",
          "114027.838000",
          "114027.841000",
          "114027.843000",
          "114027.846000",
          "114027.849000",
          "114127.773000",
          "114127.776000",
          "114127.778000",
          "114127.781000",
          "114127.784000",
          "114127.787000",
          "114127.789000",
          "114127.792000",
          "114127.795000",
          "114127.797000",
          "114127.800000",
          "114127.802000",
          "114127.805000",
          "114127.807000",
          "114127.810000",
          "114127.813000",
          "114127.816000",
          "114127.818000",
          "114127.821000",
          "114127.823000",
          "114127.826000",
          "114127.829000",
          "114127.831000",
          "114127.834000",
          "114127.837000",
          "114127.839000",
          "114227.772000",
          "114227.775000",
          "114227.778000",
          "114227.781000",
          "114227.783000",
          "114227.786000",
          "114227.789000",
          "114227.792000",
          "114227.795000",
          "114227.798000",
          "114227.800000",
          "114227.803000",
          "114227.806000",
          "114227.809000",
          "114227.812000",
          "114227.814000",
          "114227.817000",
          "114227.820000",
          "114227.823000",
          "114227.826000",
          "114227.829000",
          "114227.832000",
          "114227.835000",
          "114227.838000",
          "114227.840000",
          "114227.843000",
          "114327.774000",
          "114327.777000",
          "114327.780000",
          "114327.783000",
          "114327.785000",
          "114327.788000",
          "114327.790000",
          "114327.793000",
          "114327.800000",
          "114327.803000",
          "114327.806000",
          "114327.808000",
          "114327.811000",
          "114327.813000",
          "114327.816000",
          "114327.819000",
          "114327.821000",
          "114327.824000",
          "114327.827000",
          "114327.829000",
          "114327.833000",
          "114327.835000",
          "114327.838000",
          "114327.841000",
          "114327.844000",
          "114420.523000",
          "114420.526000",
          "114420.529000",
          "114420.532000",
          "114420.535000",
          "114420.537000",
          "114420.541000",
          "114420.546000",
          "114420.550000",
          "114420.554000",
          "114420.556000",
          "114420.559000",
          "114420.562000",
          "114420.565000",
          "114420.568000",
          "114420.571000",
          "114420.574000",
          "114420.577000",
          "114420.580000",
          "114420.583000",
          "114420.586000",
          "114420.589000",
          "114420.592000"
        ],
        "InstanceNumber": [
          1,
          2,
          3,
          4,
          5,
          6,
          7,
          8,
          9,
          10,
          11,
          12,
          13,
          14,
          15,
          16,
          17,
          18,
          19,
          20,
          21,
          22,
          23,
          24,
          25,
          26,
          27,
          28,
          29,
          30,
          31,
          32,
          33,
          34,
          35,
          36,
          37,
          38,
          39,
          40,
          41,
          42,
          43,
          44,
          45,
          46,
          47,
          48,
          49,
          50,
          51,
          52,
          53,
          54,
          55,
          56,
          57,
          58,
          59,
          60,
          61,
          62,
          63,
          64,
          65,
          66,
          67,
          68,
          69,
          70,
          71,
          72,
          73,
          74,
          75,
          76,
          77,
          78,
          79,
          80,
          81,
          82,
          83,
          84,
          85,
          86,
          87,
          88,
          89,
          90,
          91,
          92,
          93,
          94,
          95,
          96,
          97,
          98,
          99,
          100,
          101,
          102,
          103,
          104,
          105,
          106,
          107,
          108,
          109,
          110,
          111,
          112,
          113,
          114,
          115,
          116,
          117,
          118,
          119,
          120,
          121,
          122,
          123,
          124,
          125,
          126
        ],
        "LargestImagePixelValue": [
          2234,
          1738,
          2550,
          2139,
          2468,
          2314,
          2636,
          1627,
          2450,
          2805,
          1900,
          1773,
          1696,
          1974,
          1928,
          2627,
          1732,
          1789,
          2264,
          2333,
          2020,
          1840,
          2236,
          2344,
          1799,
          1748,
          1721,
          1992,
          1953,
          1956,
          2675,
          1708,
          2049,
          2021,
          1947,
          1793,
          2647,
          2059,
          1985,
          1745,
          1748,
          2478,
          2450,
          2386,
          1743,
          1773,
          1795,
          1746,
          1708,
          1988,
          2505,
          2633,
          1972,
          1893,
          2455,
          1652,
          1705,
          2264,
          2657,
          1934,
          1690,
          1688,
          1782,
          2060,
          1781,
          2421,
          2105,
          1766,
          1785,
          1973,
          2601,
          2726,
          2159,
          1809,
          2475,
          2037,
          1967,
          1769,
          2096,
          2183,
          2199,
          1974,
          2252,
          2272,
          1693,
          2040,
          1717,
          1764,
          1772,
          2198,
          2302,
          2396,
          2243,
          1691,
          2186,
          1749,
          1706,
          2256,
          2005,
          1727,
          2616,
          1820,
          1733,
          1976,
          2070,
          2268,
          2661,
          1767,
          1738,
          1706,
          2470,
          2667,
          2570,
          2199,
          2609,
          2648,
          1935,
          1884,
          1705,
          1714,
          1880,
          2675,
          2004,
          1756,
          2080,
          2155
        ],
        "WindowCenter": [
          763.0,
          761.0,
          762.0,
          760.0,
          760.0,
          759.0,
          759.0,
          758.0,
          759.0,
          759.0,
          758.0,
          760.0,
          760.0,
          760.0,
          759.0,
          762.0,
          759.0,
          760.0,
          761.0,
          760.0,
          758.0,
          758.0,
          759.0,
          760.0,
          757.0,
          758.0,
          759.0,
          760.0,
          760.0,
          761.0,
          761.0,
          758.0,
          760.0,
          760.0,
          760.0,
          760.0,
          761.0,
          758.0,
          758.0,
          759.0,
          760.0,
          762.0,
          761.0,
          758.0,
          756.0,
          757.0,
          760.0,
          760.0,
          760.0,
          763.0,
          764.0,
          760.0,
          758.0,
          759.0,
          761.0,
          759.0,
          759.0,
          761.0,
          759.0,
          759.0,
          758.0,
          758.0,
          760.0,
          762.0,
          760.0,
          762.0,
          760.0,
          758.0,
          760.0,
          761.0,
          761.0,
          761.0,
          759.0,
          762.0,
          761.0,
          760.0,
          759.0,
          762.0,
          762.0,
          762.0,
          761.0,
          760.0,
          761.0,
          761.0,
          759.0,
          762.0,
          761.0,
          762.0,
          761.0,
          761.0,
          760.0,
          761.0,
          761.0,
          759.0,
          760.0,
          762.0,
          760.0,
          762.0,
          761.0,
          761.0,
          762.0,
          760.0,
          760.0,
          764.0,
          763.0,
          762.0,
          762.0,
          760.0,
          761.0,
          762.0,
          763.0,
          762.0,
          761.0,
          762.0,
          761.0,
          761.0,
          759.0,
          760.0,
          761.0,
          762.0,
          761.0,
          762.0,
          760.0,
          761.0,
          762.0,
          761.0
        ],
        "WindowWidth": [
          1622.0,
          1616.0,
          1620.0,
          1613.0,
          1614.0,
          1612.0,
          1614.0,
          1608.0,
          1613.0,
          1613.0,
          1608.0,
          1616.0,
          1616.0,
          1614.0,
          1612.0,
          1620.0,
          1611.0,
          1615.0,
          1617.0,
          1615.0,
          1610.0,
          1611.0,
          1613.0,
          1614.0,
          1606.0,
          1609.0,
          1612.0,
          1614.0,
          1614.0,
          1616.0,
          1617.0,
          1610.0,
          1615.0,
          1615.0,
          1614.0,
          1615.0,
          1617.0,
          1610.0,
          1610.0,
          1613.0,
          1613.0,
          1620.0,
          1616.0,
          1608.0,
          1605.0,
          1608.0,
          1614.0,
          1616.0,
          1615.0,
          1622.0,
          1624.0,
          1615.0,
          1608.0,
          1612.0,
          1616.0,
          1611.0,
          1613.0,
          1616.0,
          1613.0,
          1611.0,
          1609.0,
          1610.0,
          1615.0,
          1618.0,
          1615.0,
          1621.0,
          1614.0,
          1610.0,
          1613.0,
          1617.0,
          1618.0,
          1616.0,
          1612.0,
          1621.0,
          1619.0,
          1614.0,
          1611.0,
          1618.0,
          1618.0,
          1620.0,
          1618.0,
          1614.0,
          1617.0,
          1618.0,
          1612.0,
          1618.0,
          1618.0,
          1619.0,
          1619.0,
          1618.0,
          1613.0,
          1617.0,
          1618.0,
          1612.0,
          1616.0,
          1618.0,
          1615.0,
          1621.0,
          1616.0,
          1615.0,
          1619.0,
          1615.0,
          1614.0,
          1625.0,
          1622.0,
          1620.0,
          1619.0,
          1615.0,
          1617.0,
          1619.0,
          1622.0,
          1620.0,
          1618.0,
          1618.0,
          1618.0,
          1619.0,
          1613.0,
          1614.0,
          1616.0,
          1619.0,
          1619.0,
          1621.0,
          1613.0,
          1618.0,
          1619.0,
          1617.0
        ]
      },
      "slices": {}
    }
  },
  "dummy_trs": 0,
  "dvars_nstd": 34.96244536615999,
  "dvars_std": 1.2744552546399999,
  "dvars_vstd": 1.0374640965600002,
  "efc": 0.5532331630208361,
  "fber": 1484.0966796875,
  "fd_mean": 0.47286839352347193,
  "fd_num": 110,
  "fd_perc": 87.3015873015873,
  "fwhm_avg": 1.5586968757832043,
  "fwhm_x": 1.4763066666666667,
  "fwhm_y": 1.7264566666666665,
  "fwhm_z": 1.4733272940162787,
  "gcor": 0.0212447,
  "gsr_x": -0.0059552560560405254,
  "gsr_y": 0.03539121896028519,
  "provenance": {
    "md5sum": "b7ca37cedbee394b6f4c3c3303042ad0",
    "settings": {
      "fd_thres": 0.2,
      "testing": false
    },
    "software": "mriqc",
    "version": "22.0.1",
    "webapi_port": null,
    "webapi_url": "https://mriqc.nimh.nih.gov/api/v1"
  },
  "size_t": 126,
  "size_x": 64,
  "size_y": 64,
  "size_z": 34,
  "snr": 7.656521270062571,
  "spacing_tr": 2.3399999141693115,
  "spacing_x": 3.0,
  "spacing_y": 3.0,
  "spacing_z": 3.299999952316284,
  "summary_bg_k": 54.8184726383219,
  "summary_bg_mad": 9.460414829473677,
  "summary_bg_mean": 35.942989349365234,
  "summary_bg_median": 22.54762077331543,
  "summary_bg_n": 76352.0,
  "summary_bg_p05": 11.682539939880371,
  "summary_bg_p95": 88.73373413085935,
  "summary_bg_stdv": 55.84621047973633,
  "summary_fg_k": 2.5396777402993154,
  "summary_fg_mad": 115.50171681400047,
  "summary_fg_mean": 885.7791748046875,
  "summary_fg_median": 885.166748046875,
  "summary_fg_n": 31053.0,
  "summary_fg_p05": 717.822265625,
  "summary_fg_p95": 1061.382568359375,
  "summary_fg_stdv": 115.60765838623047,
  "tsnr": 56.2998210825026
}