{
  "aor": 0.009503178294573644,
  "aqi": 0.017655625658914726,
  "bids_meta": {
    "AcquisitionMatrixPE": 64,
    "AcquisitionNumber": 1,
    "AcquisitionTime": "09:07:59.157500",
    "BandwidthPerPixelPhaseEncode": 24.038,
    "BaseResolution": 64,
    "BodyPartExamined": "HEAD",
    "ConsistencyInfo": "N4_VD13A_LATEST_20120616",
    "ConversionSoftware": "dcm2niix",
    "ConversionSoftwareVersion": "v1.0.20181125  GCC6.3.0",
    "DerivedVendorReportedEchoSpacing": 0.000650012,
    "DeviceSerialNumber": "45250",
    "DwellTime": 4.6e-06,
    "EchoTime": 0.033,
    "EchoTrainLength": 64,
    "EffectiveEchoSpacing": 0.000650012,
    "FlipAngle": 90,
    "ImageOrientationPatientDICOM": [
      0.996864,
      -0.0397062,
      -0.068444,
      0.0243628,
      0.97698,
      -0.211936
    ],
    "ImageType": [
      "ORIGINAL",
      "PRIMARY",
      "M",
      "ND",
      "NORM",
      "MOSAIC"
    ],
    "ImagingFrequency": 123.22,
    "InPlanePhaseEncodingDirectionDICOM": "COL",
    "InstitutionAddress": "Kopernikusstr._26_Graz_Graz_AT_8010",
    "InstitutionName": "KFU",
    "InstitutionalDepartmentName": "Department",
    "MRAcquisitionType": "2D",
    "MagneticFieldStrength": 3,
    "Manufacturer": "Siemens",
    "ManufacturersModelName": "Skyra",
    "Modality": "MR",
    "PartialFourier": 1,
    "PatientPosition": "HFS",
    "PercentPhaseFOV": 100,
    "PhaseEncodingDirection": "j-",
    "PhaseEncodingSteps": 64,
    "PhaseResolution": 1,
    "PixelBandwidth": 1700,
    "ProcedureStepDescription": "KFU_Entw-Psy",
    "ProtocolName": "fMRI_2",
    "PulseSequenceDetails": "%SiemensSeq%_ep2d_pace",
    "ReceiveCoilActiveElements": "HE1-4",
    "ReceiveCoilName": "HeadNeck_20",
    "ReconMatrixPE": 64,
    "RepetitionTime": 2.34,
    "SAR": 0.147183,
    "ScanOptions": "FS",
    "ScanningSequence": "EP",
    "SequenceName": "_epfid2d1_64",
    "SequenceVariant": "SK",
    "SeriesDescription": "fMRI_2",
    "SeriesNumber": 5,
    "ShimSetting": [
      -1744,
      -3650,
      -4251,
      271,
      464,
      249,
      184,
      -169
    ],
    "SliceThickness": 3,
    "SliceTiming": [
      2.2525,
      2.185,
      2.115,
      2.0475,
      1.98,
      1.9125,
      1.8425,
      1.775,
      1.7075,
      1.6375,
      1.57,
      1.5025,
      1.435,
      1.365,
      1.2975,
      1.23,
      1.16,
      1.0925,
      1.025,
      0.9575,
      0.8875,
      0.82,
      0.7525,
      0.6825,
      0.615,
      0.5475,
      0.4775,
      0.41,
      0.3425,
      0.275,
      0.205,
      0.1375,
      0.07,
      0
    ],
    "SoftwareVersions": "syngo_MR_D13",
    "SpacingBetweenSlices": 3.3,
    "StationName": "FBMTMR1",
    "TaskName": "read",
    "TotalReadoutTime": 0.0409508,
    "TxRefAmp": 332.406,
    "dataset": "ds003126",
    "dcmmeta_affine": [
      [
        -2.990593433380127,
        0.07308847457170486,
        -0.24843576550483704,
        95.68218994140625
      ],
      [
        0.11911871284246445,
        2.9309394359588623,
        -0.691693902015686,
        -109.75028228759766
      ],
      [
        -0.20533190667629242,
        0.6358086466789246,
        3.217116594314575,
        -12.570372581481934
      ],
      [
        0.0,
        0.0,
        0.0,
        1.0
      ]
    ],
    "dcmmeta_reorient_transform": [
      [
        0.0,
        -1.0,
        0.0,
        63.0
      ],
      [
        1.0,
        0.0,
        0.0,
        0.0
      ],
      [
        0.0,
        0.0,
        1.0,
        0.0
      ],
      [
        0.0,
        0.0,
        0.0,
        1.0
      ]
    ],
    "dcmmeta_shape": [
      64,
      64,
      34,
      129
    ],
    "dcmmeta_slice_dim": 2,
    "dcmmeta_version": 0.6,
    "global": {
      "const": {
        "AcquisitionMatrix": [
          64,
          0,
          0,
          64
        ],
        "AngioFlag": "N",
        "BitsAllocated": 16,
        "BitsStored": 12,
        "BodyPartExamined": "HEAD",
        "Columns": 384,
        "EchoNumbers": 1,
        "EchoTime": 33.0,
        "EchoTrainLength": 64,
        "FlipAngle": 90.0,
        "HighBit": 11,
        "ImageOrientationPatient": [
          0.99686450333516,
          -0.0397062366364,
          -0.0684439680506,
          0.02436282413395,
          0.97697978074884,
          -0.2119362187267
        ],
        "ImagePositionPatient": [
          -590.47587894428,
          -524.79019949315,
          162.06806227408
        ],
        "ImageType": [
          "ORIGINAL",
          "PRIMARY",
          "M",
          "ND",
          "NORM",
          "MOSAIC"
        ],
        "ImagedNucleus": "1H",
        "ImagingFrequency": 123.220048,
        "InPlanePhaseEncodingDirection": "COL",
        "MRAcquisitionType": "2D",
        "MagneticFieldStrength": 3.0,
        "Manufacturer": "SIEMENS",
        "ManufacturerModelName": "Skyra",
        "Modality": "MR",
        "NumberOfAverages": 1.0,
        "NumberOfPhaseEncodingSteps": 64,
        "PercentPhaseFieldOfView": 100.0,
        "PercentSampling": 100.0,
        "PerformedProcedureStepStartTime": "085919.216000",
        "PhotometricInterpretation": "MONOCHROME2",
        "PixelBandwidth": 1700.0,
        "PixelRepresentation": 0,
        "PixelSpacing": [
          3.0,
          3.0
        ],
        "ProtocolName": "fMRI_2",
        "RepetitionTime": 2340.0,
        "Rows": 384,
        "SAR": 0.14718324161993,
        "SamplesPerPixel": 1,
        "ScanOptions": "FS",
        "ScanningSequence": "EP",
        "SequenceName": "*epfid2d1_64",
        "SequenceVariant": "SK",
        "SeriesDescription": "fMRI_2",
        "SeriesNumber": 5,
        "SeriesTime": "090851.239000",
        "SliceLocation": 3.5461712862958,
        "SliceThickness": 3.0,
        "SmallestImagePixelValue": 0,
        "SoftwareVersions": "syngo MR D13",
        "SpacingBetweenSlices": 3.3000000533689,
        "SpecificCharacterSet": "ISO_IR 100",
        "StudyID": "1",
        "StudyTime": "085919.168000",
        "TransmitCoilName": "Body",
        "VariableFlipAngleFlag": "N",
        "WindowCenterWidthExplanation": "Algo1",
        "dBdt": 0.0
      },
      "slices": {}
    },
    "modality": "bold",
    "run_id": 2,
    "session_id": "2",
    "subject_id": "047EPKL011068",
    "task_id": "read",
    "time": {
      "samples": {
        "AcquisitionNumber": [
          1,
          2,
          3,
          4,
          5,
          6,
          7,
          8,
          9,
          10,
          11,
          12,
          13,
          14,
          15,
          16,
          17,
          18,
          19,
          20,
          21,
          22,
          23,
          24,
          25,
          26,
          27,
          28,
          29,
          30,
          31,
          32,
          33,
          34,
          35,
          36,
          37,
          38,
          39,
          40,
          41,
          42,
          43,
          44,
          45,
          46,
          47,
          48,
          49,
          50,
          51,
          52,
          53,
          54,
          55,
          56,
          57,
          58,
          59,
          60,
          61,
          62,
          63,
          64,
          65,
          66,
          67,
          68,
          69,
          70,
          71,
          72,
          73,
          74,
          75,
          76,
          77,
          78,
          79,
          80,
          81,
          82,
          83,
          84,
          85,
          86,
          87,
          88,
          89,
          90,
          91,
          92,
          93,
          94,
          95,
          96,
          97,
          98,
          99,
          100,
          101,
          102,
          103,
          104,
          105,
          106,
          107,
          108,
          109,
          110,
          111,
          112,
          113,
          114,
          115,
          116,
          117,
          118,
          119,
          120,
          121,
          122,
          123,
          124,
          125,
          126,
          127,
          128,
          129
        ],
        "AcquisitionTime": [
          "090759.157500",
          "090801.497500",
          "090803.837500",
          "090806.177500",
          "090808.517500",
          "090810.857500",
          "090813.197500",
          "090815.537500",
          "090817.877500",
          "090820.217500",
          "090822.557500",
          "090824.897500",
          "090827.237500",
          "090829.577500",
          "090831.917500",
          "090834.257500",
          "090836.597500",
          "090838.937500",
          "090841.277500",
          "090843.617500",
          "090845.957500",
          "090848.297500",
          "090850.637500",
          "090852.977500",
          "090855.317500",
          "090857.657500",
          "090859.997500",
          "090902.337500",
          "090904.677500",
          "090907.017500",
          "090909.357500",
          "090911.697500",
          "090914.037500",
          "090916.377500",
          "090918.717500",
          "090921.057500",
          "090923.397500",
          "090925.737500",
          "090928.077500",
          "090930.417500",
          "090932.757500",
          "090935.097500",
          "090937.437500",
          "090939.777500",
          "090942.117500",
          "090944.457500",
          "090946.797500",
          "090949.137500",
          "090951.477500",
          "090953.817500",
          "090956.157500",
          "090958.497500",
          "091000.837500",
          "091003.177500",
          "091005.517500",
          "091007.857500",
          "091010.197500",
          "091012.537500",
          "091014.877500",
          "091017.217500",
          "091019.557500",
          "091021.897500",
          "091024.237500",
          "091026.577500",
          "091028.917500",
          "091031.257500",
          "091033.597500",
          "091035.937500",
          "091038.277500",
          "091040.617500",
          "091042.957500",
          "091045.297500",
          "091047.637500",
          "091049.977500",
          "091052.317500",
          "091054.657500",
          "091056.997500",
          "091059.337500",
          "091101.677500",
          "091104.017500",
          "091106.357500",
          "091108.697500",
          "091111.037500",
          "091113.377500",
          "091115.717500",
          "091118.057500",
          "091120.397500",
          "091122.737500",
          "091125.077500",
          "091127.417500",
          "091129.757500",
          "091132.097500",
          "091134.437500",
          "091136.777500",
          "091139.117500",
          "091141.457500",
          "091143.797500",
          "091146.137500",
          "091148.477500",
          "091150.817500",
          "091153.157500",
          "091155.497500",
          "091157.837500",
          "091200.177500",
          "091202.517500",
          "091204.857500",
          "091207.197500",
          "091209.537500",
          "091211.877500",
          "091214.217500",
          "091216.557500",
          "091218.897500",
          "091221.237500",
          "091223.577500",
          "091225.917500",
          "091228.257500",
          "091230.597500",
          "091232.937500",
          "091235.277500",
          "091237.617500",
          "091239.957500",
          "091242.297500",
          "091244.637500",
          "091246.977500",
          "091249.317500",
          "091251.657500",
          "091253.997500",
          "091256.337500",
          "091258.677500"
        ],
        "ContentTime": [
          "090851.243000",
          "090851.246000",
          "090851.249000",
          "090851.256000",
          "090851.264000",
          "090851.266000",
          "090851.269000",
          "090851.272000",
          "090851.275000",
          "090851.277000",
          "090851.280000",
          "090851.288000",
          "090851.290000",
          "090851.293000",
          "090851.300000",
          "090851.302000",
          "090851.305000",
          "090851.308000",
          "090851.311000",
          "090851.314000",
          "090851.317000",
          "090851.319000",
          "090951.234000",
          "090951.237000",
          "090951.240000",
          "090951.242000",
          "090951.245000",
          "090951.248000",
          "090951.250000",
          "090951.253000",
          "090951.256000",
          "090951.258000",
          "090951.261000",
          "090951.264000",
          "090951.267000",
          "090951.269000",
          "090951.272000",
          "090951.275000",
          "090951.277000",
          "090951.280000",
          "090951.283000",
          "090951.285000",
          "090951.288000",
          "090951.291000",
          "090951.293000",
          "090951.296000",
          "090951.299000",
          "090951.301000",
          "091051.237000",
          "091051.240000",
          "091051.242000",
          "091051.245000",
          "091051.254000",
          "091051.256000",
          "091051.259000",
          "091051.261000",
          "091051.264000",
          "091051.267000",
          "091051.275000",
          "091051.278000",
          "091051.281000",
          "091051.284000",
          "091051.287000",
          "091051.289000",
          "091051.292000",
          "091051.295000",
          "091051.298000",
          "091051.300000",
          "091051.303000",
          "091051.306000",
          "091051.308000",
          "091051.311000",
          "091051.314000",
          "091051.316000",
          "091151.236000",
          "091151.239000",
          "091151.242000",
          "091151.244000",
          "091151.247000",
          "091151.250000",
          "091151.253000",
          "091151.255000",
          "091151.258000",
          "091151.261000",
          "091151.263000",
          "091151.266000",
          "091151.269000",
          "091151.271000",
          "091151.274000",
          "091151.276000",
          "091151.279000",
          "091151.282000",
          "091151.285000",
          "091151.288000",
          "091151.291000",
          "091151.293000",
          "091151.296000",
          "091151.300000",
          "091151.303000",
          "091251.236000",
          "091251.239000",
          "091251.248000",
          "091251.251000",
          "091251.253000",
          "091251.256000",
          "091251.259000",
          "091251.261000",
          "091251.264000",
          "091251.267000",
          "091251.269000",
          "091251.272000",
          "091251.275000",
          "091251.277000",
          "091251.280000",
          "091251.283000",
          "091251.285000",
          "091251.288000",
          "091251.291000",
          "091251.293000",
          "091251.296000",
          "091251.298000",
          "091251.301000",
          "091251.304000",
          "091251.307000",
          "091251.309000",
          "091301.394000",
          "091301.397000",
          "091301.405000",
          "091301.408000"
        ],
        "InstanceCreationTime": [
          "090851.243000",
          "090851.246000",
          "090851.249000",
          "090851.256000",
          "090851.264000",
          "090851.266000",
          "090851.269000",
          "090851.272000",
          "090851.275000",
          "090851.277000",
          "090851.280000",
          "090851.288000",
          "090851.290000",
          "090851.293000",
          "090851.300000",
          "090851.302000",
          "090851.305000",
          "090851.308000",
          "090851.311000",
          "090851.314000",
          "090851.317000",
          "090851.319000",
          "090951.234000",
          "090951.237000",
          "090951.240000",
          "090951.242000",
          "090951.245000",
          "090951.248000",
          "090951.250000",
          "090951.253000",
          "090951.256000",
          "090951.258000",
          "090951.261000",
          "090951.264000",
          "090951.267000",
          "090951.269000",
          "090951.272000",
          "090951.275000",
          "090951.277000",
          "090951.280000",
          "090951.283000",
          "090951.285000",
          "090951.288000",
          "090951.291000",
          "090951.293000",
          "090951.296000",
          "090951.299000",
          "090951.301000",
          "091051.237000",
          "091051.240000",
          "091051.242000",
          "091051.245000",
          "091051.254000",
          "091051.256000",
          "091051.259000",
          "091051.261000",
          "091051.264000",
          "091051.267000",
          "091051.275000",
          "091051.278000",
          "091051.281000",
          "091051.284000",
          "091051.287000",
          "091051.289000",
          "091051.292000",
          "091051.295000",
          "091051.298000",
          "091051.300000",
          "091051.303000",
          "091051.306000",
          "091051.308000",
          "091051.311000",
          "091051.314000",
          "091051.316000",
          "091151.236000",
          "091151.239000",
          "091151.242000",
          "091151.244000",
          "091151.247000",
          "091151.250000",
          "091151.253000",
          "091151.255000",
          "091151.258000",
          "091151.261000",
          "091151.263000",
          "091151.266000",
          "091151.269000",
          "091151.271000",
          "091151.274000",
          "091151.276000",
          "091151.279000",
          "091151.282000",
          "091151.285000",
          "091151.288000",
          "091151.291000",
          "091151.293000",
          "091151.296000",
          "091151.300000",
          "091151.303000",
          "091251.236000",
          "091251.239000",
          "091251.248000",
          "091251.251000",
          "091251.253000",
          "091251.256000",
          "091251.259000",
          "091251.261000",
          "091251.264000",
          "091251.267000",
          "091251.269000",
          "091251.272000",
          "091251.275000",
          "091251.277000",
          "091251.280000",
          "091251.283000",
          "091251.285000",
          "091251.288000",
          "091251.291000",
          "091251.293000",
          "091251.296000",
          "091251.298000",
          "091251.301000",
          "091251.304000",
          "091251.307000",
          "091251.309000",
          "091301.394000",
          "091301.397000",
          "091301.405000",
          "091301.408000"
        ],
        "InstanceNumber": [
          1,
          2,
          3,
          4,
          5,
          6,
          7,
          8,
          9,
          10,
          11,
          12,
          13,
          14,
          15,
          16,
          17,
          18,
          19,
          20,
          21,
          22,
          23,
          24,
          25,
          26,
          27,
          28,
          29,
          30,
          31,
          32,
          33,
          34,
          35,
          36,
          37,
          38,
          39,
          40,
          41,
          42,
          43,
          44,
          45,
          46,
          47,
          48,
          49,
          50,
          51,
          52,
          53,
          54,
          55,
          56,
          57,
          58,
          59,
          60,
          61,
          62,
          63,
          64,
          65,
          66,
          67,
          68,
          69,
          70,
          71,
          72,
          73,
          74,
          75,
          76,
          77,
          78,
          79,
          80,
          81,
          82,
          83,
          84,
          85,
          86,
          87,
          88,
          89,
          90,
          91,
          92,
          93,
          94,
          95,
          96,
          97,
          98,
          99,
          100,
          101,
          102,
          103,
          104,
          105,
          106,
          107,
          108,
          109,
          110,
          111,
          112,
          113,
          114,
          115,
          116,
          117,
          118,
          119,
          120,
          121,
          122,
          123,
          124,
          125,
          126,
          127,
          128,
          129
        ],
        "LargestImagePixelValue": [
          2338,
          2816,
          3073,
          2772,
          2130,
          2158,
          2056,
          2393,
          1968,
          1983,
          2144,
          2240,
          1911,
          1981,
          2067,
          2119,
          2351,
          2037,
          2272,
          2454,
          2210,
          2280,
          2393,
          2125,
          2308,
          2192,
          2431,
          3039,
          2864,
          2055,
          2096,
          2072,
          1866,
          2349,
          1974,
          1965,
          1945,
          2568,
          2285,
          2254,
          3204,
          2189,
          2722,
          2258,
          1992,
          2536,
          2325,
          1884,
          2520,
          2431,
          2873,
          2594,
          2105,
          2329,
          2429,
          2113,
          2118,
          2057,
          1904,
          2423,
          2294,
          1975,
          2528,
          2403,
          2360,
          2048,
          1912,
          2136,
          1841,
          2460,
          2580,
          2653,
          2864,
          2008,
          2433,
          2876,
          2946,
          2477,
          2901,
          2071,
          2621,
          2365,
          2165,
          2183,
          1871,
          2036,
          2484,
          2294,
          2864,
          1990,
          2243,
          1945,
          2146,
          2163,
          2028,
          2270,
          2183,
          1908,
          2088,
          2140,
          2519,
          2461,
          1915,
          2267,
          3115,
          2630,
          2209,
          2563,
          2002,
          2261,
          3393,
          2534,
          2370,
          1982,
          2237,
          1884,
          1903,
          2392,
          2374,
          2314,
          2854,
          2135,
          2099,
          1911,
          2274,
          2858,
          2541,
          2290,
          2064
        ],
        "WindowCenter": [
          844.0,
          843.0,
          841.0,
          839.0,
          839.0,
          840.0,
          840.0,
          841.0,
          841.0,
          840.0,
          842.0,
          842.0,
          842.0,
          848.0,
          846.0,
          846.0,
          846.0,
          846.0,
          847.0,
          847.0,
          845.0,
          847.0,
          846.0,
          847.0,
          848.0,
          847.0,
          847.0,
          848.0,
          846.0,
          845.0,
          845.0,
          847.0,
          845.0,
          847.0,
          846.0,
          847.0,
          845.0,
          847.0,
          847.0,
          846.0,
          847.0,
          846.0,
          845.0,
          845.0,
          843.0,
          845.0,
          844.0,
          843.0,
          846.0,
          845.0,
          844.0,
          841.0,
          842.0,
          843.0,
          843.0,
          841.0,
          840.0,
          842.0,
          844.0,
          847.0,
          845.0,
          843.0,
          845.0,
          844.0,
          845.0,
          847.0,
          845.0,
          848.0,
          847.0,
          849.0,
          849.0,
          848.0,
          848.0,
          849.0,
          851.0,
          848.0,
          846.0,
          843.0,
          843.0,
          842.0,
          843.0,
          845.0,
          840.0,
          844.0,
          844.0,
          845.0,
          846.0,
          844.0,
          847.0,
          843.0,
          845.0,
          844.0,
          847.0,
          848.0,
          846.0,
          847.0,
          846.0,
          846.0,
          847.0,
          847.0,
          846.0,
          848.0,
          848.0,
          851.0,
          850.0,
          855.0,
          847.0,
          854.0,
          848.0,
          851.0,
          848.0,
          847.0,
          847.0,
          846.0,
          850.0,
          850.0,
          850.0,
          852.0,
          853.0,
          853.0,
          850.0,
          848.0,
          848.0,
          851.0,
          851.0,
          851.0,
          847.0,
          847.0,
          848.0
        ],
        "WindowWidth": [
          1802.0,
          1800.0,
          1795.0,
          1790.0,
          1789.0,
          1788.0,
          1791.0,
          1793.0,
          1793.0,
          1791.0,
          1798.0,
          1798.0,
          1791.0,
          1814.0,
          1806.0,
          1808.0,
          1807.0,
          1810.0,
          1809.0,
          1809.0,
          1803.0,
          1810.0,
          1806.0,
          1808.0,
          1810.0,
          1807.0,
          1808.0,
          1812.0,
          1805.0,
          1805.0,
          1805.0,
          1808.0,
          1803.0,
          1811.0,
          1806.0,
          1806.0,
          1804.0,
          1807.0,
          1808.0,
          1805.0,
          1810.0,
          1805.0,
          1805.0,
          1802.0,
          1797.0,
          1806.0,
          1799.0,
          1798.0,
          1807.0,
          1805.0,
          1802.0,
          1795.0,
          1797.0,
          1799.0,
          1799.0,
          1793.0,
          1792.0,
          1796.0,
          1799.0,
          1810.0,
          1804.0,
          1799.0,
          1804.0,
          1802.0,
          1804.0,
          1809.0,
          1805.0,
          1811.0,
          1810.0,
          1814.0,
          1818.0,
          1813.0,
          1813.0,
          1815.0,
          1819.0,
          1813.0,
          1810.0,
          1799.0,
          1801.0,
          1795.0,
          1798.0,
          1806.0,
          1793.0,
          1803.0,
          1801.0,
          1804.0,
          1808.0,
          1803.0,
          1810.0,
          1799.0,
          1804.0,
          1802.0,
          1810.0,
          1812.0,
          1806.0,
          1811.0,
          1808.0,
          1807.0,
          1808.0,
          1810.0,
          1809.0,
          1813.0,
          1812.0,
          1820.0,
          1823.0,
          1823.0,
          1810.0,
          1831.0,
          1814.0,
          1818.0,
          1812.0,
          1810.0,
          1811.0,
          1809.0,
          1817.0,
          1817.0,
          1818.0,
          1823.0,
          1826.0,
          1826.0,
          1819.0,
          1812.0,
          1812.0,
          1822.0,
          1821.0,
          1822.0,
          1810.0,
          1810.0,
          1813.0
        ]
      },
      "slices": {}
    }
  },
  "dummy_trs": 0,
  "dvars_nstd": 40.71051067093749,
  "dvars_std": 1.4019868078125,
  "dvars_vstd": 1.06161917421875,
  "efc": 0.5812553012608328,
  "fber": 1654.8363037109375,
  "fd_mean": 0.4830196884563311,
  "fd_num": 106,
  "fd_perc": 82.17054263565892,
  "fwhm_avg": 1.6353497043592717,
  "fwhm_x": 1.5798566666666665,
  "fwhm_y": 1.7919833333333333,
  "fwhm_z": 1.5342091130778157,
  "gcor": 0.0829094,
  "gsr_x": 0.0005380446091294289,
  "gsr_y": 0.040363188832998276,
  "provenance": {
    "md5sum": "811d601bd5dbd6a574361527ddf65cbe",
    "settings": {
      "fd_thres": 0.2,
      "testing": false
    },
    "software": "mriqc",
    "version": "22.0.1",
    "webapi_port": null,
    "webapi_url": "https://mriqc.nimh.nih.gov/api/v1"
  },
  "size_t": 129,
  "size_x": 64,
  "size_y": 64,
  "size_z": 34,
  "snr": 7.102880409547998,
  "spacing_tr": 2.3399999141693115,
  "spacing_x": 3.0,
  "spacing_y": 3.0,
  "spacing_z": 3.299999952316284,
  "summary_bg_k": 39.415577679146736,
  "summary_bg_mad": 12.182623034192352,
  "summary_bg_mean": 41.100494384765625,
  "summary_bg_median": 23.9069766998291,
  "summary_bg_n": 70907.0,
  "summary_bg_p05": 12.255813598632812,
  "summary_bg_p95": 116.16356353759758,
  "summary_bg_stdv": 64.40567016601562,
  "summary_fg_k": 2.062777889534117,
  "summary_fg_mad": 139.68069310674093,
  "summary_fg_mean": 1002.2002563476562,
  "summary_fg_median": 1000.5038452148438,
  "summary_fg_n": 35734.0,
  "summary_fg_p05": 795.5942108154297,
  "summary_fg_p95": 1220.1841186523436,
  "summary_fg_stdv": 140.85691833496094,
  "tsnr": 49.47630986943841
}