{
  "aor": 0.00924565891472868,
  "aqi": 0.018475912790697675,
  "bids_meta": {
    "AcquisitionMatrixPE": 64,
    "AcquisitionNumber": 1,
    "AcquisitionTime": "09:01:55.242500",
    "BandwidthPerPixelPhaseEncode": 24.038,
    "BaseResolution": 64,
    "BodyPartExamined": "HEAD",
    "ConsistencyInfo": "N4_VD13A_LATEST_20120616",
    "ConversionSoftware": "dcm2niix",
    "ConversionSoftwareVersion": "v1.0.20181125  GCC6.3.0",
    "DerivedVendorReportedEchoSpacing": 0.000650012,
    "DeviceSerialNumber": "45250",
    "DwellTime": 4.6e-06,
    "EchoTime": 0.033,
    "EchoTrainLength": 64,
    "EffectiveEchoSpacing": 0.000650012,
    "FlipAngle": 90,
    "ImageOrientationPatientDICOM": [
      0.996864,
      -0.0397062,
      -0.068444,
      0.0243628,
      0.97698,
      -0.211936
    ],
    "ImageType": [
      "ORIGINAL",
      "PRIMARY",
      "M",
      "ND",
      "NORM",
      "MOSAIC"
    ],
    "ImagingFrequency": 123.22,
    "InPlanePhaseEncodingDirectionDICOM": "COL",
    "InstitutionAddress": "Kopernikusstr._26_Graz_Graz_AT_8010",
    "InstitutionName": "KFU",
    "InstitutionalDepartmentName": "Department",
    "MRAcquisitionType": "2D",
    "MagneticFieldStrength": 3,
    "Manufacturer": "Siemens",
    "ManufacturersModelName": "Skyra",
    "Modality": "MR",
    "PartialFourier": 1,
    "PatientPosition": "HFS",
    "PercentPhaseFOV": 100,
    "PhaseEncodingDirection": "j-",
    "PhaseEncodingSteps": 64,
    "PhaseResolution": 1,
    "PixelBandwidth": 1700,
    "ProcedureStepDescription": "KFU_Entw-Psy",
    "ProtocolName": "fMRI_1",
    "PulseSequenceDetails": "%SiemensSeq%_ep2d_pace",
    "ReceiveCoilActiveElements": "HE1-4",
    "ReceiveCoilName": "HeadNeck_20",
    "ReconMatrixPE": 64,
    "RepetitionTime": 2.34,
    "SAR": 0.147183,
    "ScanOptions": "FS",
    "ScanningSequence": "EP",
    "SequenceName": "_epfid2d1_64",
    "SequenceVariant": "SK",
    "SeriesDescription": "fMRI_1",
    "SeriesNumber": 2,
    "ShimSetting": [
      -1744,
      -3650,
      -4251,
      271,
      464,
      249,
      184,
      -169
    ],
    "SliceThickness": 3,
    "SliceTiming": [
      2.2525,
      2.1825,
      2.115,
      2.0475,
      1.9775,
      1.91,
      1.8425,
      1.775,
      1.705,
      1.6375,
      1.57,
      1.5,
      1.4325,
      1.365,
      1.295,
      1.2275,
      1.16,
      1.0925,
      1.0225,
      0.955,
      0.8875,
      0.8175,
      0.75,
      0.6825,
      0.615,
      0.545,
      0.4775,
      0.41,
      0.34,
      0.2725,
      0.205,
      0.135,
      0.0675,
      0
    ],
    "SoftwareVersions": "syngo_MR_D13",
    "SpacingBetweenSlices": 3.3,
    "StationName": "FBMTMR1",
    "TaskName": "read",
    "TotalReadoutTime": 0.0409508,
    "TxRefAmp": 332.406,
    "dataset": "ds003126",
    "dcmmeta_affine": [
      [
        -2.990593433380127,
        0.07308847457170486,
        -0.24843576550483704,
        95.68218994140625
      ],
      [
        0.11911871284246445,
        2.9309394359588623,
        -0.691693902015686,
        -109.75028228759766
      ],
      [
        -0.20533190667629242,
        0.6358086466789246,
        3.217116594314575,
        -12.570372581481934
      ],
      [
        0.0,
        0.0,
        0.0,
        1.0
      ]
    ],
    "dcmmeta_reorient_transform": [
      [
        0.0,
        -1.0,
        0.0,
        63.0
      ],
      [
        1.0,
        0.0,
        0.0,
        0.0
      ],
      [
        0.0,
        0.0,
        1.0,
        0.0
      ],
      [
        0.0,
        0.0,
        0.0,
        1.0
      ]
    ],
    "dcmmeta_shape": [
      64,
      64,
      34,
      129
    ],
    "dcmmeta_slice_dim": 2,
    "dcmmeta_version": 0.6,
    "global": {
      "const": {
        "AcquisitionMatrix": [
          64,
          0,
          0,
          64
        ],
        "AngioFlag": "N",
        "BitsAllocated": 16,
        "BitsStored": 12,
        "BodyPartExamined": "HEAD",
        "Columns": 384,
        "EchoNumbers": 1,
        "EchoTime": 33.0,
        "EchoTrainLength": 64,
        "FlipAngle": 90.0,
        "HighBit": 11,
        "ImageOrientationPatient": [
          0.99686450333516,
          -0.0397062366364,
          -0.0684439680506,
          0.02436282413395,
          0.97697978074884,
          -0.2119362187267
        ],
        "ImagePositionPatient": [
          -590.47587894428,
          -524.79019949315,
          162.06806227408
        ],
        "ImageType": [
          "ORIGINAL",
          "PRIMARY",
          "M",
          "ND",
          "NORM",
          "MOSAIC"
        ],
        "ImagedNucleus": "1H",
        "ImagingFrequency": 123.220041,
        "InPlanePhaseEncodingDirection": "COL",
        "MRAcquisitionType": "2D",
        "MagneticFieldStrength": 3.0,
        "Manufacturer": "SIEMENS",
        "ManufacturerModelName": "Skyra",
        "Modality": "MR",
        "NumberOfAverages": 1.0,
        "NumberOfPhaseEncodingSteps": 64,
        "PercentPhaseFieldOfView": 100.0,
        "PercentSampling": 100.0,
        "PerformedProcedureStepStartTime": "085919.216000",
        "PhotometricInterpretation": "MONOCHROME2",
        "PixelBandwidth": 1700.0,
        "PixelRepresentation": 0,
        "PixelSpacing": [
          3.0,
          3.0
        ],
        "ProtocolName": "fMRI_1",
        "RepetitionTime": 2340.0,
        "Rows": 384,
        "SAR": 0.14718324161993,
        "SamplesPerPixel": 1,
        "ScanOptions": "FS",
        "ScanningSequence": "EP",
        "SequenceName": "*epfid2d1_64",
        "SequenceVariant": "SK",
        "SeriesDescription": "fMRI_1",
        "SeriesNumber": 2,
        "SeriesTime": "090240.352000",
        "SliceLocation": 3.5461712862958,
        "SliceThickness": 3.0,
        "SmallestImagePixelValue": 0,
        "SoftwareVersions": "syngo MR D13",
        "SpacingBetweenSlices": 3.3000000533689,
        "SpecificCharacterSet": "ISO_IR 100",
        "StudyID": "1",
        "StudyTime": "085919.168000",
        "TransmitCoilName": "Body",
        "VariableFlipAngleFlag": "N",
        "WindowCenterWidthExplanation": "Algo1",
        "dBdt": 0.0
      },
      "slices": {}
    },
    "modality": "bold",
    "run_id": 1,
    "session_id": "2",
    "subject_id": "047EPKL011068",
    "task_id": "read",
    "time": {
      "samples": {
        "AcquisitionNumber": [
          1,
          2,
          3,
          4,
          5,
          6,
          7,
          8,
          9,
          10,
          11,
          12,
          13,
          14,
          15,
          16,
          17,
          18,
          19,
          20,
          21,
          22,
          23,
          24,
          25,
          26,
          27,
          28,
          29,
          30,
          31,
          32,
          33,
          34,
          35,
          36,
          37,
          38,
          39,
          40,
          41,
          42,
          43,
          44,
          45,
          46,
          47,
          48,
          49,
          50,
          51,
          52,
          53,
          54,
          55,
          56,
          57,
          58,
          59,
          60,
          61,
          62,
          63,
          64,
          65,
          66,
          67,
          68,
          69,
          70,
          71,
          72,
          73,
          74,
          75,
          76,
          77,
          78,
          79,
          80,
          81,
          82,
          83,
          84,
          85,
          86,
          87,
          88,
          89,
          90,
          91,
          92,
          93,
          94,
          95,
          96,
          97,
          98,
          99,
          100,
          101,
          102,
          103,
          104,
          105,
          106,
          107,
          108,
          109,
          110,
          111,
          112,
          113,
          114,
          115,
          116,
          117,
          118,
          119,
          120,
          121,
          122,
          123,
          124,
          125,
          126,
          127,
          128,
          129
        ],
        "AcquisitionTime": [
          "090155.242500",
          "090157.582500",
          "090159.922500",
          "090202.262500",
          "090204.602500",
          "090206.942500",
          "090209.282500",
          "090211.622500",
          "090213.962500",
          "090216.302500",
          "090218.642500",
          "090220.982500",
          "090223.322500",
          "090225.662500",
          "090228.002500",
          "090230.342500",
          "090232.682500",
          "090235.022500",
          "090237.362500",
          "090239.702500",
          "090242.042500",
          "090244.382500",
          "090246.722500",
          "090249.062500",
          "090251.402500",
          "090253.742500",
          "090256.082500",
          "090258.422500",
          "090300.762500",
          "090303.102500",
          "090305.442500",
          "090307.782500",
          "090310.122500",
          "090312.462500",
          "090314.802500",
          "090317.142500",
          "090319.482500",
          "090321.822500",
          "090324.162500",
          "090326.502500",
          "090328.842500",
          "090331.182500",
          "090333.522500",
          "090335.862500",
          "090338.202500",
          "090340.542500",
          "090342.882500",
          "090345.222500",
          "090347.562500",
          "090349.902500",
          "090352.242500",
          "090354.582500",
          "090356.922500",
          "090359.262500",
          "090401.602500",
          "090403.942500",
          "090406.282500",
          "090408.622500",
          "090410.962500",
          "090413.302500",
          "090415.642500",
          "090417.982500",
          "090420.322500",
          "090422.662500",
          "090425.002500",
          "090427.342500",
          "090429.682500",
          "090432.022500",
          "090434.362500",
          "090436.702500",
          "090439.042500",
          "090441.382500",
          "090443.722500",
          "090446.062500",
          "090448.402500",
          "090450.742500",
          "090453.082500",
          "090455.422500",
          "090457.762500",
          "090500.102500",
          "090502.442500",
          "090504.782500",
          "090507.122500",
          "090509.462500",
          "090511.802500",
          "090514.142500",
          "090516.482500",
          "090518.822500",
          "090521.162500",
          "090523.502500",
          "090525.842500",
          "090528.182500",
          "090530.522500",
          "090532.862500",
          "090535.202500",
          "090537.542500",
          "090539.882500",
          "090542.222500",
          "090544.562500",
          "090546.902500",
          "090549.242500",
          "090551.582500",
          "090553.922500",
          "090556.262500",
          "090558.602500",
          "090600.942500",
          "090603.282500",
          "090605.622500",
          "090607.962500",
          "090610.302500",
          "090612.642500",
          "090614.982500",
          "090617.322500",
          "090619.662500",
          "090622.002500",
          "090624.342500",
          "090626.682500",
          "090629.022500",
          "090631.362500",
          "090633.702500",
          "090636.042500",
          "090638.382500",
          "090640.722500",
          "090643.062500",
          "090645.402500",
          "090647.742500",
          "090650.082500",
          "090652.422500",
          "090654.762500"
        ],
        "ContentTime": [
          "090240.357000",
          "090240.369000",
          "090240.371000",
          "090240.374000",
          "090240.377000",
          "090240.380000",
          "090240.382000",
          "090240.385000",
          "090240.395000",
          "090240.398000",
          "090240.404000",
          "090240.407000",
          "090240.410000",
          "090240.413000",
          "090240.421000",
          "090240.423000",
          "090240.426000",
          "090240.429000",
          "090240.432000",
          "090340.345000",
          "090340.348000",
          "090340.351000",
          "090340.358000",
          "090340.366000",
          "090340.369000",
          "090340.371000",
          "090340.374000",
          "090340.382000",
          "090340.385000",
          "090340.388000",
          "090340.391000",
          "090340.394000",
          "090340.396000",
          "090340.399000",
          "090340.402000",
          "090340.404000",
          "090340.407000",
          "090340.410000",
          "090340.412000",
          "090340.416000",
          "090340.418000",
          "090340.421000",
          "090340.423000",
          "090340.426000",
          "090340.429000",
          "090440.346000",
          "090440.349000",
          "090440.352000",
          "090440.354000",
          "090440.358000",
          "090440.363000",
          "090440.365000",
          "090440.368000",
          "090440.371000",
          "090440.374000",
          "090440.377000",
          "090440.380000",
          "090440.383000",
          "090440.385000",
          "090440.388000",
          "090440.391000",
          "090440.394000",
          "090440.396000",
          "090440.399000",
          "090440.402000",
          "090440.404000",
          "090440.407000",
          "090440.410000",
          "090440.412000",
          "090440.416000",
          "090440.419000",
          "090540.347000",
          "090540.350000",
          "090540.353000",
          "090540.355000",
          "090540.365000",
          "090540.368000",
          "090540.370000",
          "090540.373000",
          "090540.376000",
          "090540.379000",
          "090540.381000",
          "090540.384000",
          "090540.387000",
          "090540.390000",
          "090540.393000",
          "090540.395000",
          "090540.398000",
          "090540.401000",
          "090540.403000",
          "090540.406000",
          "090540.409000",
          "090540.412000",
          "090540.415000",
          "090540.417000",
          "090540.420000",
          "090640.347000",
          "090640.350000",
          "090640.353000",
          "090640.356000",
          "090640.359000",
          "090640.361000",
          "090640.364000",
          "090640.367000",
          "090640.370000",
          "090640.373000",
          "090640.376000",
          "090640.378000",
          "090640.381000",
          "090640.384000",
          "090640.387000",
          "090640.390000",
          "090640.393000",
          "090640.396000",
          "090640.398000",
          "090640.401000",
          "090640.404000",
          "090640.406000",
          "090640.409000",
          "090640.427000",
          "090640.429000",
          "090640.432000",
          "090657.203000",
          "090657.208000",
          "090657.216000",
          "090657.221000",
          "090657.225000",
          "090657.228000",
          "090657.232000"
        ],
        "InstanceCreationTime": [
          "090240.357000",
          "090240.369000",
          "090240.371000",
          "090240.374000",
          "090240.377000",
          "090240.380000",
          "090240.382000",
          "090240.385000",
          "090240.395000",
          "090240.398000",
          "090240.404000",
          "090240.407000",
          "090240.410000",
          "090240.413000",
          "090240.421000",
          "090240.423000",
          "090240.426000",
          "090240.429000",
          "090240.432000",
          "090340.345000",
          "090340.348000",
          "090340.351000",
          "090340.358000",
          "090340.366000",
          "090340.369000",
          "090340.371000",
          "090340.374000",
          "090340.382000",
          "090340.385000",
          "090340.388000",
          "090340.391000",
          "090340.394000",
          "090340.396000",
          "090340.399000",
          "090340.402000",
          "090340.404000",
          "090340.407000",
          "090340.410000",
          "090340.412000",
          "090340.416000",
          "090340.418000",
          "090340.421000",
          "090340.423000",
          "090340.426000",
          "090340.429000",
          "090440.346000",
          "090440.349000",
          "090440.352000",
          "090440.354000",
          "090440.358000",
          "090440.363000",
          "090440.365000",
          "090440.368000",
          "090440.371000",
          "090440.374000",
          "090440.377000",
          "090440.380000",
          "090440.383000",
          "090440.385000",
          "090440.388000",
          "090440.391000",
          "090440.394000",
          "090440.396000",
          "090440.399000",
          "090440.402000",
          "090440.404000",
          "090440.407000",
          "090440.410000",
          "090440.412000",
          "090440.416000",
          "090440.419000",
          "090540.347000",
          "090540.350000",
          "090540.353000",
          "090540.355000",
          "090540.365000",
          "090540.368000",
          "090540.370000",
          "090540.373000",
          "090540.376000",
          "090540.379000",
          "090540.381000",
          "090540.384000",
          "090540.387000",
          "090540.390000",
          "090540.393000",
          "090540.395000",
          "090540.398000",
          "090540.401000",
          "090540.403000",
          "090540.406000",
          "090540.409000",
          "090540.412000",
          "090540.415000",
          "090540.417000",
          "090540.420000",
          "090640.347000",
          "090640.350000",
          "090640.353000",
          "090640.356000",
          "090640.359000",
          "090640.361000",
          "090640.364000",
          "090640.367000",
          "090640.370000",
          "090640.373000",
          "090640.376000",
          "090640.378000",
          "090640.381000",
          "090640.384000",
          "090640.387000",
          "090640.390000",
          "090640.393000",
          "090640.396000",
          "090640.398000",
          "090640.401000",
          "090640.404000",
          "090640.406000",
          "090640.409000",
          "090640.427000",
          "090640.429000",
          "090640.432000",
          "090657.203000",
          "090657.208000",
          "090657.216000",
          "090657.221000",
          "090657.225000",
          "090657.228000",
          "090657.232000"
        ],
        "InstanceNumber": [
          1,
          2,
          3,
          4,
          5,
          6,
          7,
          8,
          9,
          10,
          11,
          12,
          13,
          14,
          15,
          16,
          17,
          18,
          19,
          20,
          21,
          22,
          23,
          24,
          25,
          26,
          27,
          28,
          29,
          30,
          31,
          32,
          33,
          34,
          35,
          36,
          37,
          38,
          39,
          40,
          41,
          42,
          43,
          44,
          45,
          46,
          47,
          48,
          49,
          50,
          51,
          52,
          53,
          54,
          55,
          56,
          57,
          58,
          59,
          60,
          61,
          62,
          63,
          64,
          65,
          66,
          67,
          68,
          69,
          70,
          71,
          72,
          73,
          74,
          75,
          76,
          77,
          78,
          79,
          80,
          81,
          82,
          83,
          84,
          85,
          86,
          87,
          88,
          89,
          90,
          91,
          92,
          93,
          94,
          95,
          96,
          97,
          98,
          99,
          100,
          101,
          102,
          103,
          104,
          105,
          106,
          107,
          108,
          109,
          110,
          111,
          112,
          113,
          114,
          115,
          116,
          117,
          118,
          119,
          120,
          121,
          122,
          123,
          124,
          125,
          126,
          127,
          128,
          129
        ],
        "LargestImagePixelValue": [
          2342,
          1904,
          2557,
          2648,
          2694,
          2629,
          2848,
          2244,
          1865,
          2536,
          1909,
          2131,
          1921,
          2109,
          1952,
          2300,
          2121,
          2018,
          2136,
          2458,
          2443,
          2586,
          2152,
          2505,
          2158,
          2668,
          2736,
          1946,
          2119,
          2010,
          2006,
          2010,
          1874,
          2037,
          2343,
          2689,
          2065,
          2302,
          2230,
          2229,
          2288,
          2357,
          2513,
          1947,
          2468,
          2356,
          2560,
          2358,
          2222,
          2020,
          2046,
          2489,
          2166,
          2650,
          2304,
          2084,
          1956,
          2117,
          2059,
          2243,
          2023,
          2010,
          2459,
          2178,
          2163,
          2529,
          2045,
          2453,
          2221,
          2384,
          2214,
          2147,
          1964,
          2013,
          2003,
          2094,
          2531,
          2321,
          2499,
          2149,
          2797,
          2434,
          2668,
          2562,
          1930,
          2534,
          2373,
          2315,
          2556,
          1933,
          2031,
          2364,
          2512,
          2071,
          2318,
          2725,
          2503,
          2303,
          2280,
          1968,
          2173,
          2072,
          2016,
          2613,
          2304,
          2438,
          2092,
          2112,
          2219,
          2729,
          2716,
          2044,
          2064,
          2277,
          1902,
          2245,
          2469,
          2719,
          2775,
          3205,
          2382,
          2219,
          2096,
          2209,
          2067,
          2033,
          1913,
          2752,
          2665
        ],
        "WindowCenter": [
          847.0,
          846.0,
          847.0,
          846.0,
          846.0,
          843.0,
          844.0,
          842.0,
          843.0,
          844.0,
          841.0,
          844.0,
          845.0,
          844.0,
          844.0,
          845.0,
          844.0,
          844.0,
          845.0,
          845.0,
          845.0,
          846.0,
          845.0,
          845.0,
          844.0,
          846.0,
          844.0,
          841.0,
          841.0,
          841.0,
          842.0,
          843.0,
          844.0,
          844.0,
          845.0,
          846.0,
          843.0,
          847.0,
          845.0,
          846.0,
          845.0,
          844.0,
          844.0,
          842.0,
          848.0,
          845.0,
          844.0,
          846.0,
          844.0,
          848.0,
          848.0,
          847.0,
          846.0,
          846.0,
          844.0,
          844.0,
          845.0,
          848.0,
          846.0,
          848.0,
          848.0,
          848.0,
          849.0,
          847.0,
          848.0,
          849.0,
          847.0,
          847.0,
          847.0,
          850.0,
          846.0,
          846.0,
          846.0,
          850.0,
          848.0,
          849.0,
          848.0,
          848.0,
          849.0,
          849.0,
          849.0,
          848.0,
          850.0,
          848.0,
          845.0,
          848.0,
          846.0,
          846.0,
          846.0,
          846.0,
          848.0,
          848.0,
          850.0,
          845.0,
          846.0,
          845.0,
          841.0,
          841.0,
          842.0,
          842.0,
          845.0,
          845.0,
          845.0,
          848.0,
          844.0,
          844.0,
          847.0,
          849.0,
          850.0,
          850.0,
          846.0,
          845.0,
          847.0,
          846.0,
          846.0,
          850.0,
          849.0,
          849.0,
          845.0,
          846.0,
          845.0,
          844.0,
          843.0,
          845.0,
          845.0,
          847.0,
          844.0,
          848.0,
          845.0
        ],
        "WindowWidth": [
          1812.0,
          1808.0,
          1811.0,
          1810.0,
          1808.0,
          1802.0,
          1804.0,
          1796.0,
          1800.0,
          1804.0,
          1796.0,
          1805.0,
          1806.0,
          1803.0,
          1802.0,
          1804.0,
          1803.0,
          1803.0,
          1805.0,
          1805.0,
          1803.0,
          1808.0,
          1803.0,
          1802.0,
          1802.0,
          1807.0,
          1803.0,
          1791.0,
          1794.0,
          1794.0,
          1796.0,
          1799.0,
          1800.0,
          1801.0,
          1804.0,
          1807.0,
          1798.0,
          1810.0,
          1806.0,
          1805.0,
          1806.0,
          1801.0,
          1799.0,
          1794.0,
          1809.0,
          1805.0,
          1800.0,
          1809.0,
          1802.0,
          1810.0,
          1811.0,
          1811.0,
          1807.0,
          1807.0,
          1801.0,
          1802.0,
          1803.0,
          1811.0,
          1809.0,
          1810.0,
          1812.0,
          1812.0,
          1815.0,
          1810.0,
          1812.0,
          1814.0,
          1810.0,
          1812.0,
          1808.0,
          1819.0,
          1809.0,
          1807.0,
          1803.0,
          1817.0,
          1812.0,
          1814.0,
          1814.0,
          1811.0,
          1816.0,
          1814.0,
          1816.0,
          1810.0,
          1817.0,
          1810.0,
          1803.0,
          1813.0,
          1807.0,
          1806.0,
          1807.0,
          1803.0,
          1811.0,
          1818.0,
          1815.0,
          1801.0,
          1810.0,
          1803.0,
          1791.0,
          1793.0,
          1795.0,
          1795.0,
          1804.0,
          1800.0,
          1803.0,
          1811.0,
          1799.0,
          1801.0,
          1804.0,
          1813.0,
          1816.0,
          1817.0,
          1808.0,
          1804.0,
          1809.0,
          1804.0,
          1804.0,
          1817.0,
          1813.0,
          1817.0,
          1806.0,
          1809.0,
          1803.0,
          1799.0,
          1802.0,
          1801.0,
          1800.0,
          1807.0,
          1800.0,
          1812.0,
          1803.0
        ]
      },
      "slices": {}
    }
  },
  "dummy_trs": 0,
  "dvars_nstd": 42.71537685406249,
  "dvars_std": 1.4108673962499996,
  "dvars_vstd": 1.0776134815625,
  "efc": 0.5814327173950176,
  "fber": 1649.0506591796875,
  "fd_mean": 0.5338728360223497,
  "fd_num": 107,
  "fd_perc": 82.94573643410853,
  "fwhm_avg": 1.64300233070934,
  "fwhm_x": 1.57752,
  "fwhm_y": 1.7991233333333332,
  "fwhm_z": 1.5523636587946872,
  "gcor": 0.0407073,
  "gsr_x": -0.0006258479552343488,
  "gsr_y": 0.03873969614505768,
  "provenance": {
    "md5sum": "41efe5e85220848b99ea0dafc81cc4be",
    "settings": {
      "fd_thres": 0.2,
      "testing": false
    },
    "software": "mriqc",
    "version": "22.0.1",
    "webapi_port": null,
    "webapi_url": "https://mriqc.nimh.nih.gov/api/v1"
  },
  "size_t": 129,
  "size_x": 64,
  "size_y": 64,
  "size_z": 34,
  "snr": 7.0747396895524135,
  "spacing_tr": 2.3399999141693115,
  "spacing_x": 3.0,
  "spacing_y": 3.0,
  "spacing_z": 3.299999952316284,
  "summary_bg_k": 41.681330895764155,
  "summary_bg_mad": 12.056198821960276,
  "summary_bg_mean": 40.274234771728516,
  "summary_bg_median": 23.9069766998291,
  "summary_bg_n": 70707.0,
  "summary_bg_p05": 12.317829132080078,
  "summary_bg_p95": 111.33876190185545,
  "summary_bg_stdv": 61.67143630981445,
  "summary_fg_k": 2.0472599418410855,
  "summary_fg_mad": 140.50244058881182,
  "summary_fg_mean": 1000.5851440429688,
  "summary_fg_median": 998.8062133789062,
  "summary_fg_n": 35807.0,
  "summary_fg_p05": 793.2309936523437,
  "summary_fg_p95": 1219.6031249999999,
  "summary_fg_stdv": 141.17724609375,
  "tsnr": 48.72840756329242
}