{
  "aor": 0.009215528455284554,
  "aqi": 0.01633189032520325,
  "bids_meta": {
    "AcquisitionMatrixPE": 64,
    "AcquisitionNumber": 1,
    "AcquisitionTime": "11:41:5.125000",
    "BandwidthPerPixelPhaseEncode": 24.038,
    "BaseResolution": 64,
    "BodyPartExamined": "HEAD",
    "ConsistencyInfo": "N4_VD13A_LATEST_20120616",
    "ConversionSoftware": "dcm2niix",
    "ConversionSoftwareVersion": "v1.0.20181125  GCC6.3.0",
    "DerivedVendorReportedEchoSpacing": 0.000650012,
    "DeviceSerialNumber": "45250",
    "DwellTime": 4.6e-06,
    "EchoTime": 0.033,
    "EchoTrainLength": 64,
    "EffectiveEchoSpacing": 0.000650012,
    "FlipAngle": 90,
    "ImageOrientationPatientDICOM": [
      0.999802,
      -0.0168612,
      -0.0105638,
      0.0157062,
      0.994738,
      -0.101236
    ],
    "ImageType": [
      "ORIGINAL",
      "PRIMARY",
      "M",
      "ND",
      "NORM",
      "MOSAIC"
    ],
    "ImagingFrequency": 123.22,
    "InPlanePhaseEncodingDirectionDICOM": "COL",
    "InstitutionAddress": "Kopernikusstr._26_Graz_Graz_AT_8010",
    "InstitutionName": "KFU",
    "InstitutionalDepartmentName": "Department",
    "MRAcquisitionType": "2D",
    "MagneticFieldStrength": 3,
    "Manufacturer": "Siemens",
    "ManufacturersModelName": "Skyra",
    "Modality": "MR",
    "PartialFourier": 1,
    "PatientPosition": "HFS",
    "PercentPhaseFOV": 100,
    "PhaseEncodingDirection": "j-",
    "PhaseEncodingSteps": 64,
    "PhaseResolution": 1,
    "PixelBandwidth": 1700,
    "ProcedureStepDescription": "KFU_Entw-Psy",
    "ProtocolName": "fMRI_3",
    "PulseSequenceDetails": "%SiemensSeq%_ep2d_pace",
    "ReceiveCoilActiveElements": "HE1-4",
    "ReceiveCoilName": "HeadNeck_20",
    "ReconMatrixPE": 64,
    "RepetitionTime": 2.34,
    "SAR": 0.174142,
    "ScanOptions": "FS",
    "ScanningSequence": "EP",
    "SequenceName": "_epfid2d1_64",
    "SequenceVariant": "SK",
    "SeriesDescription": "fMRI_3",
    "SeriesNumber": 8,
    "ShimSetting": [
      -1660,
      -3700,
      -4305,
      380,
      527,
      143,
      21,
      -275
    ],
    "SliceThickness": 3,
    "SliceTiming": [
      2.25,
      2.1825,
      2.115,
      2.0475,
      1.9775,
      1.91,
      1.8425,
      1.7725,
      1.705,
      1.6375,
      1.57,
      1.5,
      1.4325,
      1.365,
      1.295,
      1.2275,
      1.16,
      1.0925,
      1.0225,
      0.955,
      0.8875,
      0.8175,
      0.75,
      0.6825,
      0.6125,
      0.545,
      0.4775,
      0.41,
      0.34,
      0.2725,
      0.205,
      0.135,
      0.0675,
      0
    ],
    "SoftwareVersions": "syngo_MR_D13",
    "SpacingBetweenSlices": 3.3,
    "StationName": "FBMTMR1",
    "TaskName": "read",
    "TotalReadoutTime": 0.0409508,
    "TxRefAmp": 328.909,
    "dataset": "ds003126",
    "dcmmeta_affine": [
      [
        -2.999406099319458,
        0.04711856320500374,
        -0.04030996561050415,
        91.38080596923828
      ],
      [
        0.05058368295431137,
        2.984215259552002,
        -0.3334651589393616,
        -119.75926971435547
      ],
      [
        -0.031691279262304306,
        0.303708016872406,
        3.2828609943389893,
        -23.59489631652832
      ],
      [
        0.0,
        0.0,
        0.0,
        1.0
      ]
    ],
    "dcmmeta_reorient_transform": [
      [
        0.0,
        -1.0,
        0.0,
        63.0
      ],
      [
        1.0,
        0.0,
        0.0,
        0.0
      ],
      [
        0.0,
        0.0,
        1.0,
        0.0
      ],
      [
        0.0,
        0.0,
        0.0,
        1.0
      ]
    ],
    "dcmmeta_shape": [
      64,
      64,
      34,
      123
    ],
    "dcmmeta_slice_dim": 2,
    "dcmmeta_version": 0.6,
    "global": {
      "const": {
        "AcquisitionMatrix": [
          64,
          0,
          0,
          64
        ],
        "AngioFlag": "N",
        "BitsAllocated": 16,
        "BitsStored": 12,
        "BodyPartExamined": "HEAD",
        "Columns": 384,
        "EchoNumbers": 1,
        "EchoTime": 33.0,
        "EchoTrainLength": 64,
        "FlipAngle": 90.0,
        "HighBit": 11,
        "ImageOrientationPatient": [
          0.99980203339418,
          -0.0168612278824,
          -0.0105637595182,
          0.01570618815413,
          0.99473845111338,
          -0.1012360090591
        ],
        "ImagePositionPatient": [
          -581.79322259608,
          -537.6273653436,
          49.202598745488
        ],
        "ImageType": [
          "ORIGINAL",
          "PRIMARY",
          "M",
          "ND",
          "NORM",
          "MOSAIC"
        ],
        "ImagedNucleus": "1H",
        "ImagingFrequency": 123.220145,
        "InPlanePhaseEncodingDirection": "COL",
        "MRAcquisitionType": "2D",
        "MagneticFieldStrength": 3.0,
        "Manufacturer": "SIEMENS",
        "ManufacturerModelName": "Skyra",
        "Modality": "MR",
        "NumberOfAverages": 1.0,
        "NumberOfPhaseEncodingSteps": 64,
        "PercentPhaseFieldOfView": 100.0,
        "PercentSampling": 100.0,
        "PerformedProcedureStepStartTime": "112335.231000",
        "PhotometricInterpretation": "MONOCHROME2",
        "PixelBandwidth": 1700.0,
        "PixelRepresentation": 0,
        "PixelSpacing": [
          3.0,
          3.0
        ],
        "ProtocolName": "fMRI_3",
        "RepetitionTime": 2340.0,
        "Rows": 384,
        "SAR": 0.1741415899983,
        "SamplesPerPixel": 1,
        "ScanOptions": "FS",
        "ScanningSequence": "EP",
        "SequenceName": "*epfid2d1_64",
        "SequenceVariant": "SK",
        "SeriesDescription": "fMRI_3",
        "SeriesNumber": 8,
        "SeriesTime": "114152.520000",
        "SliceLocation": -12.486901465625,
        "SliceThickness": 3.0,
        "SmallestImagePixelValue": 0,
        "SoftwareVersions": "syngo MR D13",
        "SpacingBetweenSlices": 3.2999999689498,
        "SpecificCharacterSet": "ISO_IR 100",
        "StudyID": "1",
        "StudyTime": "112335.182000",
        "TransmitCoilName": "Body",
        "VariableFlipAngleFlag": "N",
        "WindowCenterWidthExplanation": "Algo1",
        "dBdt": 0.0
      },
      "slices": {}
    },
    "modality": "bold",
    "run_id": 3,
    "session_id": "2",
    "subject_id": "047EPKL013061",
    "task_id": "read",
    "time": {
      "samples": {
        "AcquisitionNumber": [
          1,
          2,
          3,
          4,
          5,
          6,
          7,
          8,
          9,
          10,
          11,
          12,
          13,
          14,
          15,
          16,
          17,
          18,
          19,
          20,
          21,
          22,
          23,
          24,
          25,
          26,
          27,
          28,
          29,
          30,
          31,
          32,
          33,
          34,
          35,
          36,
          37,
          38,
          39,
          40,
          41,
          42,
          43,
          44,
          45,
          46,
          47,
          48,
          49,
          50,
          51,
          52,
          53,
          54,
          55,
          56,
          57,
          58,
          59,
          60,
          61,
          62,
          63,
          64,
          65,
          66,
          67,
          68,
          69,
          70,
          71,
          72,
          73,
          74,
          75,
          76,
          77,
          78,
          79,
          80,
          81,
          82,
          83,
          84,
          85,
          86,
          87,
          88,
          89,
          90,
          91,
          92,
          93,
          94,
          95,
          96,
          97,
          98,
          99,
          100,
          101,
          102,
          103,
          104,
          105,
          106,
          107,
          108,
          109,
          110,
          111,
          112,
          113,
          114,
          115,
          116,
          117,
          118,
          119,
          120,
          121,
          122,
          123
        ],
        "AcquisitionTime": [
          "114105.125000",
          "114107.465000",
          "114109.805000",
          "114112.145000",
          "114114.485000",
          "114116.825000",
          "114119.165000",
          "114121.505000",
          "114123.845000",
          "114126.185000",
          "114128.525000",
          "114130.865000",
          "114133.205000",
          "114135.545000",
          "114137.885000",
          "114140.225000",
          "114142.565000",
          "114144.905000",
          "114147.245000",
          "114149.585000",
          "114151.925000",
          "114154.265000",
          "114156.605000",
          "114158.945000",
          "114201.285000",
          "114203.625000",
          "114205.965000",
          "114208.305000",
          "114210.645000",
          "114212.985000",
          "114215.325000",
          "114217.665000",
          "114220.005000",
          "114222.345000",
          "114224.685000",
          "114227.025000",
          "114229.365000",
          "114231.705000",
          "114234.045000",
          "114236.385000",
          "114238.725000",
          "114241.065000",
          "114243.405000",
          "114245.745000",
          "114248.085000",
          "114250.425000",
          "114252.765000",
          "114255.105000",
          "114257.445000",
          "114259.785000",
          "114302.125000",
          "114304.465000",
          "114306.805000",
          "114309.145000",
          "114311.485000",
          "114313.825000",
          "114316.165000",
          "114318.505000",
          "114320.845000",
          "114323.185000",
          "114325.525000",
          "114327.865000",
          "114330.205000",
          "114332.545000",
          "114334.885000",
          "114337.225000",
          "114339.565000",
          "114341.905000",
          "114344.245000",
          "114346.585000",
          "114348.925000",
          "114351.265000",
          "114353.605000",
          "114355.945000",
          "114358.285000",
          "114400.625000",
          "114402.965000",
          "114405.305000",
          "114407.645000",
          "114409.985000",
          "114412.325000",
          "114414.665000",
          "114417.005000",
          "114419.345000",
          "114421.685000",
          "114424.025000",
          "114426.365000",
          "114428.705000",
          "114431.045000",
          "114433.385000",
          "114435.725000",
          "114438.065000",
          "114440.405000",
          "114442.745000",
          "114445.085000",
          "114447.425000",
          "114449.765000",
          "114452.105000",
          "114454.445000",
          "114456.785000",
          "114459.125000",
          "114501.465000",
          "114503.805000",
          "114506.145000",
          "114508.485000",
          "114510.825000",
          "114513.165000",
          "114515.505000",
          "114517.845000",
          "114520.185000",
          "114522.525000",
          "114524.865000",
          "114527.205000",
          "114529.545000",
          "114531.885000",
          "114534.225000",
          "114536.565000",
          "114538.905000",
          "114541.245000",
          "114543.585000",
          "114545.925000",
          "114548.265000",
          "114550.605000"
        ],
        "ContentTime": [
          "114152.524000",
          "114152.528000",
          "114152.531000",
          "114152.534000",
          "114152.537000",
          "114152.539000",
          "114152.542000",
          "114152.544000",
          "114152.547000",
          "114152.550000",
          "114152.560000",
          "114152.563000",
          "114152.565000",
          "114152.568000",
          "114152.576000",
          "114152.579000",
          "114152.581000",
          "114152.584000",
          "114152.587000",
          "114152.589000",
          "114252.518000",
          "114252.523000",
          "114252.525000",
          "114252.528000",
          "114252.531000",
          "114252.534000",
          "114252.537000",
          "114252.539000",
          "114252.542000",
          "114252.545000",
          "114252.548000",
          "114252.551000",
          "114252.554000",
          "114252.556000",
          "114252.559000",
          "114252.562000",
          "114252.565000",
          "114252.568000",
          "114252.571000",
          "114252.574000",
          "114252.576000",
          "114252.579000",
          "114252.582000",
          "114252.585000",
          "114252.587000",
          "114252.590000",
          "114352.517000",
          "114352.521000",
          "114352.523000",
          "114352.526000",
          "114352.529000",
          "114352.532000",
          "114352.534000",
          "114352.537000",
          "114352.540000",
          "114352.543000",
          "114352.545000",
          "114352.548000",
          "114352.551000",
          "114352.553000",
          "114352.556000",
          "114352.559000",
          "114352.562000",
          "114352.564000",
          "114352.567000",
          "114352.570000",
          "114352.572000",
          "114352.575000",
          "114352.578000",
          "114352.580000",
          "114352.583000",
          "114352.586000",
          "114452.518000",
          "114452.522000",
          "114452.524000",
          "114452.527000",
          "114452.529000",
          "114452.540000",
          "114452.543000",
          "114452.545000",
          "114452.548000",
          "114452.550000",
          "114452.553000",
          "114452.556000",
          "114452.559000",
          "114452.561000",
          "114452.564000",
          "114452.567000",
          "114452.570000",
          "114452.573000",
          "114452.575000",
          "114452.578000",
          "114452.581000",
          "114452.583000",
          "114452.586000",
          "114452.589000",
          "114452.591000",
          "114552.519000",
          "114552.522000",
          "114552.525000",
          "114552.528000",
          "114552.530000",
          "114552.533000",
          "114552.535000",
          "114552.538000",
          "114552.541000",
          "114552.543000",
          "114552.546000",
          "114552.549000",
          "114552.551000",
          "114552.554000",
          "114552.556000",
          "114552.559000",
          "114552.562000",
          "114552.564000",
          "114552.567000",
          "114552.570000",
          "114552.573000",
          "114552.576000",
          "114552.579000",
          "114552.581000",
          "114552.584000",
          "114552.587000"
        ],
        "InstanceCreationTime": [
          "114152.524000",
          "114152.528000",
          "114152.531000",
          "114152.534000",
          "114152.537000",
          "114152.539000",
          "114152.542000",
          "114152.544000",
          "114152.547000",
          "114152.550000",
          "114152.560000",
          "114152.563000",
          "114152.565000",
          "114152.568000",
          "114152.576000",
          "114152.579000",
          "114152.581000",
          "114152.584000",
          "114152.587000",
          "114152.589000",
          "114252.518000",
          "114252.523000",
          "114252.525000",
          "114252.528000",
          "114252.531000",
          "114252.534000",
          "114252.537000",
          "114252.539000",
          "114252.542000",
          "114252.545000",
          "114252.548000",
          "114252.551000",
          "114252.554000",
          "114252.556000",
          "114252.559000",
          "114252.562000",
          "114252.565000",
          "114252.568000",
          "114252.571000",
          "114252.574000",
          "114252.576000",
          "114252.579000",
          "114252.582000",
          "114252.585000",
          "114252.587000",
          "114252.590000",
          "114352.517000",
          "114352.521000",
          "114352.523000",
          "114352.526000",
          "114352.529000",
          "114352.532000",
          "114352.534000",
          "114352.537000",
          "114352.540000",
          "114352.543000",
          "114352.545000",
          "114352.548000",
          "114352.551000",
          "114352.553000",
          "114352.556000",
          "114352.559000",
          "114352.562000",
          "114352.564000",
          "114352.567000",
          "114352.570000",
          "114352.572000",
          "114352.575000",
          "114352.578000",
          "114352.580000",
          "114352.583000",
          "114352.586000",
          "114452.518000",
          "114452.522000",
          "114452.524000",
          "114452.527000",
          "114452.529000",
          "114452.540000",
          "114452.543000",
          "114452.545000",
          "114452.548000",
          "114452.550000",
          "114452.553000",
          "114452.556000",
          "114452.559000",
          "114452.561000",
          "114452.564000",
          "114452.567000",
          "114452.570000",
          "114452.573000",
          "114452.575000",
          "114452.578000",
          "114452.581000",
          "114452.583000",
          "114452.586000",
          "114452.589000",
          "114452.591000",
          "114552.519000",
          "114552.522000",
          "114552.525000",
          "114552.528000",
          "114552.530000",
          "114552.533000",
          "114552.535000",
          "114552.538000",
          "114552.541000",
          "114552.543000",
          "114552.546000",
          "114552.549000",
          "114552.551000",
          "114552.554000",
          "114552.556000",
          "114552.559000",
          "114552.562000",
          "114552.564000",
          "114552.567000",
          "114552.570000",
          "114552.573000",
          "114552.576000",
          "114552.579000",
          "114552.581000",
          "114552.584000",
          "114552.587000"
        ],
        "InstanceNumber": [
          1,
          2,
          3,
          4,
          5,
          6,
          7,
          8,
          9,
          10,
          11,
          12,
          13,
          14,
          15,
          16,
          17,
          18,
          19,
          20,
          21,
          22,
          23,
          24,
          25,
          26,
          27,
          28,
          29,
          30,
          31,
          32,
          33,
          34,
          35,
          36,
          37,
          38,
          39,
          40,
          41,
          42,
          43,
          44,
          45,
          46,
          47,
          48,
          49,
          50,
          51,
          52,
          53,
          54,
          55,
          56,
          57,
          58,
          59,
          60,
          61,
          62,
          63,
          64,
          65,
          66,
          67,
          68,
          69,
          70,
          71,
          72,
          73,
          74,
          75,
          76,
          77,
          78,
          79,
          80,
          81,
          82,
          83,
          84,
          85,
          86,
          87,
          88,
          89,
          90,
          91,
          92,
          93,
          94,
          95,
          96,
          97,
          98,
          99,
          100,
          101,
          102,
          103,
          104,
          105,
          106,
          107,
          108,
          109,
          110,
          111,
          112,
          113,
          114,
          115,
          116,
          117,
          118,
          119,
          120,
          121,
          122,
          123
        ],
        "LargestImagePixelValue": [
          1653,
          1911,
          2370,
          2541,
          1937,
          1786,
          1938,
          2556,
          2279,
          1776,
          2069,
          1616,
          1624,
          1676,
          1909,
          1733,
          1575,
          1556,
          1665,
          1653,
          1736,
          1811,
          1676,
          1665,
          1842,
          1619,
          1597,
          1636,
          1679,
          1671,
          1631,
          1657,
          1878,
          1717,
          1653,
          1663,
          1723,
          1685,
          1941,
          1838,
          2089,
          1671,
          1925,
          1622,
          1589,
          1606,
          1620,
          1641,
          1917,
          1916,
          2286,
          2144,
          1641,
          1650,
          1692,
          1616,
          1596,
          1550,
          1630,
          1686,
          1691,
          1620,
          2110,
          1827,
          1715,
          1596,
          1640,
          1754,
          1936,
          1741,
          1730,
          1777,
          2186,
          1868,
          2071,
          1773,
          1641,
          1754,
          1694,
          1610,
          1611,
          1611,
          2039,
          2205,
          1660,
          1598,
          1660,
          2071,
          1646,
          1801,
          1653,
          1642,
          1672,
          1629,
          2144,
          1614,
          1657,
          1810,
          1620,
          1676,
          1576,
          1608,
          1654,
          1617,
          2160,
          1991,
          1836,
          1949,
          2359,
          1664,
          1709,
          1650,
          1569,
          1659,
          1653,
          1673,
          1993,
          1875,
          2073,
          2057,
          2151,
          1617,
          1659
        ],
        "WindowCenter": [
          764.0,
          764.0,
          765.0,
          764.0,
          763.0,
          762.0,
          763.0,
          763.0,
          760.0,
          758.0,
          757.0,
          758.0,
          759.0,
          759.0,
          759.0,
          759.0,
          758.0,
          760.0,
          763.0,
          761.0,
          760.0,
          759.0,
          759.0,
          761.0,
          760.0,
          759.0,
          758.0,
          760.0,
          761.0,
          761.0,
          760.0,
          762.0,
          761.0,
          761.0,
          760.0,
          761.0,
          762.0,
          763.0,
          762.0,
          762.0,
          763.0,
          761.0,
          760.0,
          762.0,
          760.0,
          761.0,
          762.0,
          761.0,
          762.0,
          760.0,
          760.0,
          757.0,
          756.0,
          757.0,
          761.0,
          761.0,
          764.0,
          761.0,
          761.0,
          760.0,
          761.0,
          761.0,
          761.0,
          763.0,
          763.0,
          763.0,
          764.0,
          765.0,
          766.0,
          764.0,
          763.0,
          767.0,
          764.0,
          761.0,
          760.0,
          764.0,
          762.0,
          766.0,
          762.0,
          763.0,
          766.0,
          765.0,
          764.0,
          762.0,
          761.0,
          763.0,
          764.0,
          765.0,
          762.0,
          763.0,
          763.0,
          765.0,
          766.0,
          764.0,
          764.0,
          764.0,
          765.0,
          764.0,
          763.0,
          766.0,
          766.0,
          765.0,
          767.0,
          767.0,
          767.0,
          765.0,
          763.0,
          765.0,
          763.0,
          762.0,
          762.0,
          766.0,
          764.0,
          764.0,
          764.0,
          765.0,
          766.0,
          766.0,
          766.0,
          765.0,
          763.0,
          761.0,
          762.0
        ],
        "WindowWidth": [
          1634.0,
          1633.0,
          1635.0,
          1634.0,
          1632.0,
          1628.0,
          1631.0,
          1630.0,
          1622.0,
          1618.0,
          1616.0,
          1619.0,
          1622.0,
          1619.0,
          1621.0,
          1621.0,
          1618.0,
          1621.0,
          1631.0,
          1625.0,
          1621.0,
          1622.0,
          1619.0,
          1624.0,
          1624.0,
          1620.0,
          1619.0,
          1622.0,
          1626.0,
          1626.0,
          1624.0,
          1628.0,
          1625.0,
          1626.0,
          1624.0,
          1624.0,
          1629.0,
          1631.0,
          1628.0,
          1629.0,
          1630.0,
          1624.0,
          1622.0,
          1628.0,
          1623.0,
          1624.0,
          1629.0,
          1625.0,
          1628.0,
          1624.0,
          1623.0,
          1617.0,
          1613.0,
          1617.0,
          1626.0,
          1627.0,
          1632.0,
          1625.0,
          1624.0,
          1623.0,
          1625.0,
          1626.0,
          1626.0,
          1630.0,
          1630.0,
          1631.0,
          1632.0,
          1637.0,
          1637.0,
          1631.0,
          1631.0,
          1642.0,
          1635.0,
          1626.0,
          1625.0,
          1631.0,
          1627.0,
          1640.0,
          1629.0,
          1630.0,
          1639.0,
          1634.0,
          1633.0,
          1629.0,
          1625.0,
          1631.0,
          1633.0,
          1635.0,
          1627.0,
          1631.0,
          1630.0,
          1635.0,
          1638.0,
          1632.0,
          1633.0,
          1633.0,
          1635.0,
          1635.0,
          1631.0,
          1637.0,
          1637.0,
          1635.0,
          1640.0,
          1643.0,
          1641.0,
          1636.0,
          1633.0,
          1635.0,
          1632.0,
          1628.0,
          1628.0,
          1639.0,
          1633.0,
          1632.0,
          1633.0,
          1636.0,
          1638.0,
          1639.0,
          1638.0,
          1634.0,
          1630.0,
          1625.0,
          1627.0
        ]
      },
      "slices": {}
    }
  },
  "dummy_trs": 0,
  "dvars_nstd": 38.065875303524585,
  "dvars_std": 1.3761291090983607,
  "dvars_vstd": 1.103001336393443,
  "efc": 0.5437000285205005,
  "fber": 1775.6231689453125,
  "fd_mean": 0.50023367911743,
  "fd_num": 102,
  "fd_perc": 82.92682926829268,
  "fwhm_avg": 1.591468390987161,
  "fwhm_x": 1.4973633333333334,
  "fwhm_y": 1.7928266666666666,
  "fwhm_z": 1.4842151729614834,
  "gcor": 0.0596904,
  "gsr_x": -0.006938546895980835,
  "gsr_y": 0.043289318680763245,
  "provenance": {
    "md5sum": "09d047d9165d911d81fc85d84df50fd8",
    "settings": {
      "fd_thres": 0.2,
      "testing": false
    },
    "software": "mriqc",
    "version": "22.0.1",
    "webapi_port": null,
    "webapi_url": "https://mriqc.nimh.nih.gov/api/v1"
  },
  "size_t": 123,
  "size_x": 64,
  "size_y": 64,
  "size_z": 34,
  "snr": 7.361238396306635,
  "spacing_tr": 2.3399999141693115,
  "spacing_x": 3.0,
  "spacing_y": 3.0,
  "spacing_z": 3.299999952316284,
  "summary_bg_k": 46.32483149352883,
  "summary_bg_mad": 8.509896028539707,
  "summary_bg_mean": 35.49149703979492,
  "summary_bg_median": 21.18699073791504,
  "summary_bg_n": 78019.0,
  "summary_bg_p05": 11.91869831085205,
  "summary_bg_p95": 98.65853118896484,
  "summary_bg_stdv": 53.360130310058594,
  "summary_fg_k": 2.787578699126679,
  "summary_fg_mad": 122.6219899806944,
  "summary_fg_mean": 901.1627807617188,
  "summary_fg_median": 903.4471435546875,
  "summary_fg_n": 29957.0,
  "summary_fg_p05": 720.489404296875,
  "summary_fg_p95": 1081.4861328124996,
  "summary_fg_stdv": 122.728271484375,
  "tsnr": 52.40253598813433
}