{
  "aor": 0.025269763779527558,
  "aqi": 0.01907470204724409,
  "bids_meta": {
    "AcquisitionMatrixPE": 64,
    "AcquisitionNumber": 1,
    "AcquisitionTime": "14:02:31.900000",
    "BandwidthPerPixelPhaseEncode": 24.038,
    "BaseResolution": 64,
    "BodyPartExamined": "HEAD",
    "ConsistencyInfo": "N4_VD13A_LATEST_20120616",
    "ConversionSoftware": "dcm2niix",
    "ConversionSoftwareVersion": "v1.0.20181125  GCC6.3.0",
    "DerivedVendorReportedEchoSpacing": 0.000650012,
    "DeviceSerialNumber": "45250",
    "DwellTime": 4.6e-06,
    "EchoTime": 0.033,
    "EchoTrainLength": 64,
    "EffectiveEchoSpacing": 0.000650012,
    "FlipAngle": 90,
    "ImageOrientationPatientDICOM": [
      0.999919,
      -0.00599321,
      -0.0112015,
      0.00349042,
      0.977401,
      -0.211366
    ],
    "ImageType": [
      "ORIGINAL",
      "PRIMARY",
      "M",
      "ND",
      "NORM",
      "MOSAIC"
    ],
    "ImagingFrequency": 123.22,
    "InPlanePhaseEncodingDirectionDICOM": "COL",
    "InstitutionAddress": "Kopernikusstr._26_Graz_Graz_AT_8010",
    "InstitutionName": "KFU",
    "InstitutionalDepartmentName": "Department",
    "MRAcquisitionType": "2D",
    "MagneticFieldStrength": 3,
    "Manufacturer": "Siemens",
    "ManufacturersModelName": "Skyra",
    "Modality": "MR",
    "PartialFourier": 1,
    "PatientPosition": "HFS",
    "PercentPhaseFOV": 100,
    "PhaseEncodingDirection": "j-",
    "PhaseEncodingSteps": 64,
    "PhaseResolution": 1,
    "PixelBandwidth": 1700,
    "ProcedureStepDescription": "KFU_Entw-Psy",
    "ProtocolName": "fMRI_3",
    "PulseSequenceDetails": "%SiemensSeq%_ep2d_pace",
    "ReceiveCoilActiveElements": "HE1-4",
    "ReceiveCoilName": "HeadNeck_20",
    "ReconMatrixPE": 64,
    "RepetitionTime": 2.34,
    "SAR": 0.161298,
    "ScanOptions": "FS",
    "ScanningSequence": "EP",
    "SequenceName": "_epfid2d1_64",
    "SequenceVariant": "SK",
    "SeriesDescription": "fMRI_3",
    "SeriesNumber": 8,
    "ShimSetting": [
      -1616,
      -3746,
      -4124,
      645,
      459,
      91,
      548,
      -259
    ],
    "SliceThickness": 3,
    "SliceTiming": [
      2.25,
      2.1825,
      2.115,
      2.045,
      1.9775,
      1.91,
      1.84,
      1.7725,
      1.705,
      1.6375,
      1.5675,
      1.5,
      1.4325,
      1.3625,
      1.295,
      1.2275,
      1.16,
      1.09,
      1.0225,
      0.955,
      0.885,
      0.8175,
      0.75,
      0.6825,
      0.6125,
      0.545,
      0.4775,
      0.4075,
      0.34,
      0.2725,
      0.2025,
      0.135,
      0.0675,
      0
    ],
    "SoftwareVersions": "syngo_MR_D13",
    "SpacingBetweenSlices": 3.3,
    "StationName": "FBMTMR1",
    "TaskName": "read",
    "TotalReadoutTime": 0.0409508,
    "TxRefAmp": 331.233,
    "dataset": "ds003126",
    "dcmmeta_affine": [
      [
        -2.999758005142212,
        0.010471254587173462,
        -0.040309980511665344,
        97.72993469238281
      ],
      [
        0.017979620024561882,
        2.932201862335205,
        -0.6973239779472351,
        -105.32451629638672
      ],
      [
        -0.033604588359594345,
        0.6340993642807007,
        3.2252309322357178,
        -9.040899276733398
      ],
      [
        0.0,
        0.0,
        0.0,
        1.0
      ]
    ],
    "dcmmeta_reorient_transform": [
      [
        0.0,
        -1.0,
        0.0,
        63.0
      ],
      [
        1.0,
        0.0,
        0.0,
        0.0
      ],
      [
        0.0,
        0.0,
        1.0,
        0.0
      ],
      [
        0.0,
        0.0,
        0.0,
        1.0
      ]
    ],
    "dcmmeta_shape": [
      64,
      64,
      34,
      127
    ],
    "dcmmeta_slice_dim": 2,
    "dcmmeta_version": 0.6,
    "global": {
      "const": {
        "AcquisitionMatrix": [
          64,
          0,
          0,
          64
        ],
        "AngioFlag": "N",
        "BitsAllocated": 16,
        "BitsStored": 12,
        "BodyPartExamined": "HEAD",
        "Columns": 384,
        "EchoNumbers": 1,
        "EchoTime": 33.0,
        "EchoTrainLength": 64,
        "FlipAngle": 90.0,
        "HighBit": 11,
        "ImageOrientationPatient": [
          0.99991930034227,
          -0.0059932068679,
          -0.0112015300057,
          0.00349041832207,
          0.97740065449396,
          -0.2113664532861
        ],
        "ImagePositionPatient": [
          -580.02628575812,
          -545.67978346055,
          137.73999280295
        ],
        "ImageType": [
          "ORIGINAL",
          "PRIMARY",
          "M",
          "ND",
          "NORM",
          "MOSAIC"
        ],
        "ImagedNucleus": "1H",
        "ImagingFrequency": 123.219884,
        "InPlanePhaseEncodingDirection": "COL",
        "MRAcquisitionType": "2D",
        "MagneticFieldStrength": 3.0,
        "Manufacturer": "SIEMENS",
        "ManufacturerModelName": "Skyra",
        "Modality": "MR",
        "NumberOfAverages": 1.0,
        "NumberOfPhaseEncodingSteps": 64,
        "PercentPhaseFieldOfView": 100.0,
        "PercentSampling": 100.0,
        "PerformedProcedureStepStartTime": "133911.243000",
        "PhotometricInterpretation": "MONOCHROME2",
        "PixelBandwidth": 1700.0,
        "PixelRepresentation": 0,
        "PixelSpacing": [
          3.0,
          3.0
        ],
        "ProtocolName": "fMRI_3",
        "RepetitionTime": 2340.0,
        "Rows": 384,
        "SAR": 0.16129775261034,
        "SamplesPerPixel": 1,
        "ScanOptions": "FS",
        "ScanningSequence": "EP",
        "SequenceName": "*epfid2d1_64",
        "SequenceVariant": "SK",
        "SeriesDescription": "fMRI_3",
        "SeriesNumber": 8,
        "SeriesTime": "140319.876000",
        "SliceLocation": 12.226312862131,
        "SliceThickness": 3.0,
        "SmallestImagePixelValue": 0,
        "SoftwareVersions": "syngo MR D13",
        "SpacingBetweenSlices": 3.3000000972469,
        "SpecificCharacterSet": "ISO_IR 100",
        "StudyID": "1",
        "StudyTime": "133911.196000",
        "TransmitCoilName": "Body",
        "VariableFlipAngleFlag": "N",
        "WindowCenterWidthExplanation": "Algo1",
        "dBdt": 0.0
      },
      "slices": {}
    },
    "modality": "bold",
    "run_id": 3,
    "session_id": "2",
    "subject_id": "047EPKL012074",
    "task_id": "read",
    "time": {
      "samples": {
        "AcquisitionNumber": [
          1,
          2,
          3,
          4,
          5,
          6,
          7,
          8,
          9,
          10,
          11,
          12,
          13,
          14,
          15,
          16,
          17,
          18,
          19,
          20,
          21,
          22,
          23,
          24,
          25,
          26,
          27,
          28,
          29,
          30,
          31,
          32,
          33,
          34,
          35,
          36,
          37,
          38,
          39,
          40,
          41,
          42,
          43,
          44,
          45,
          46,
          47,
          48,
          49,
          50,
          51,
          52,
          53,
          54,
          55,
          56,
          57,
          58,
          59,
          60,
          61,
          62,
          63,
          64,
          65,
          66,
          67,
          68,
          69,
          70,
          71,
          72,
          73,
          74,
          75,
          76,
          77,
          78,
          79,
          80,
          81,
          82,
          83,
          84,
          85,
          86,
          87,
          88,
          89,
          90,
          91,
          92,
          93,
          94,
          95,
          96,
          97,
          98,
          99,
          100,
          101,
          102,
          103,
          104,
          105,
          106,
          107,
          108,
          109,
          110,
          111,
          112,
          113,
          114,
          115,
          116,
          117,
          118,
          119,
          120,
          121,
          122,
          123,
          124,
          125,
          126,
          127
        ],
        "AcquisitionTime": [
          "140231.900000",
          "140234.240000",
          "140236.580000",
          "140238.920000",
          "140241.260000",
          "140243.600000",
          "140245.940000",
          "140248.280000",
          "140250.620000",
          "140252.960000",
          "140255.300000",
          "140257.640000",
          "140259.980000",
          "140302.320000",
          "140304.660000",
          "140307.000000",
          "140309.340000",
          "140311.680000",
          "140314.020000",
          "140316.360000",
          "140318.700000",
          "140321.040000",
          "140323.380000",
          "140325.720000",
          "140328.060000",
          "140330.400000",
          "140332.740000",
          "140335.080000",
          "140337.420000",
          "140339.760000",
          "140342.100000",
          "140344.440000",
          "140346.780000",
          "140349.120000",
          "140351.460000",
          "140353.800000",
          "140356.140000",
          "140358.480000",
          "140400.820000",
          "140403.160000",
          "140405.500000",
          "140407.840000",
          "140410.180000",
          "140412.520000",
          "140414.860000",
          "140417.200000",
          "140419.540000",
          "140421.880000",
          "140424.220000",
          "140426.560000",
          "140428.900000",
          "140431.240000",
          "140433.580000",
          "140435.920000",
          "140438.260000",
          "140440.600000",
          "140442.940000",
          "140445.280000",
          "140447.620000",
          "140449.960000",
          "140452.300000",
          "140454.640000",
          "140456.980000",
          "140459.320000",
          "140501.660000",
          "140504.000000",
          "140506.340000",
          "140508.680000",
          "140511.020000",
          "140513.360000",
          "140515.700000",
          "140518.040000",
          "140520.380000",
          "140522.720000",
          "140525.060000",
          "140527.400000",
          "140529.740000",
          "140532.080000",
          "140534.420000",
          "140536.760000",
          "140539.100000",
          "140541.440000",
          "140543.780000",
          "140546.120000",
          "140548.460000",
          "140550.800000",
          "140553.140000",
          "140555.480000",
          "140557.820000",
          "140600.160000",
          "140602.500000",
          "140604.840000",
          "140607.180000",
          "140609.520000",
          "140611.860000",
          "140614.200000",
          "140616.540000",
          "140618.880000",
          "140621.220000",
          "140623.560000",
          "140625.900000",
          "140628.240000",
          "140630.580000",
          "140632.920000",
          "140635.260000",
          "140637.600000",
          "140639.940000",
          "140642.280000",
          "140644.620000",
          "140646.960000",
          "140649.300000",
          "140651.640000",
          "140653.980000",
          "140656.320000",
          "140658.660000",
          "140701.000000",
          "140703.340000",
          "140705.680000",
          "140708.020000",
          "140710.360000",
          "140712.700000",
          "140715.040000",
          "140717.380000",
          "140719.720000",
          "140722.060000",
          "140724.400000",
          "140726.740000"
        ],
        "ContentTime": [
          "140319.881000",
          "140319.884000",
          "140319.887000",
          "140319.890000",
          "140319.899000",
          "140319.902000",
          "140319.904000",
          "140319.907000",
          "140319.909000",
          "140319.912000",
          "140319.914000",
          "140319.917000",
          "140319.920000",
          "140319.922000",
          "140319.925000",
          "140319.932000",
          "140319.934000",
          "140319.937000",
          "140319.939000",
          "140319.942000",
          "140319.945000",
          "140419.875000",
          "140419.879000",
          "140419.881000",
          "140419.884000",
          "140419.886000",
          "140419.889000",
          "140419.892000",
          "140419.894000",
          "140419.897000",
          "140419.900000",
          "140419.902000",
          "140419.905000",
          "140419.908000",
          "140419.910000",
          "140419.913000",
          "140419.916000",
          "140419.918000",
          "140419.921000",
          "140419.924000",
          "140419.926000",
          "140419.929000",
          "140419.931000",
          "140419.934000",
          "140419.937000",
          "140419.939000",
          "140519.875000",
          "140519.879000",
          "140519.881000",
          "140519.884000",
          "140519.887000",
          "140519.890000",
          "140519.892000",
          "140519.895000",
          "140519.898000",
          "140519.900000",
          "140519.903000",
          "140519.906000",
          "140519.908000",
          "140519.911000",
          "140519.914000",
          "140519.917000",
          "140519.919000",
          "140519.922000",
          "140519.925000",
          "140519.927000",
          "140519.930000",
          "140519.932000",
          "140519.935000",
          "140519.937000",
          "140519.940000",
          "140519.943000",
          "140619.876000",
          "140619.879000",
          "140619.882000",
          "140619.885000",
          "140619.888000",
          "140619.891000",
          "140619.893000",
          "140619.896000",
          "140619.899000",
          "140619.902000",
          "140619.904000",
          "140619.907000",
          "140619.921000",
          "140619.924000",
          "140619.927000",
          "140619.930000",
          "140619.932000",
          "140619.935000",
          "140619.938000",
          "140619.941000",
          "140619.943000",
          "140619.946000",
          "140619.949000",
          "140619.951000",
          "140619.954000",
          "140719.875000",
          "140719.879000",
          "140719.882000",
          "140719.884000",
          "140719.887000",
          "140719.890000",
          "140719.893000",
          "140719.896000",
          "140719.899000",
          "140719.901000",
          "140719.904000",
          "140719.907000",
          "140719.909000",
          "140719.912000",
          "140719.915000",
          "140719.917000",
          "140719.920000",
          "140719.922000",
          "140719.925000",
          "140719.928000",
          "140719.930000",
          "140719.933000",
          "140719.936000",
          "140719.938000",
          "140719.941000",
          "140719.944000",
          "140729.823000",
          "140729.826000",
          "140729.829000",
          "140729.833000"
        ],
        "InstanceCreationTime": [
          "140319.881000",
          "140319.884000",
          "140319.887000",
          "140319.890000",
          "140319.899000",
          "140319.902000",
          "140319.904000",
          "140319.907000",
          "140319.909000",
          "140319.912000",
          "140319.914000",
          "140319.917000",
          "140319.920000",
          "140319.922000",
          "140319.925000",
          "140319.932000",
          "140319.934000",
          "140319.937000",
          "140319.939000",
          "140319.942000",
          "140319.945000",
          "140419.875000",
          "140419.879000",
          "140419.881000",
          "140419.884000",
          "140419.886000",
          "140419.889000",
          "140419.892000",
          "140419.894000",
          "140419.897000",
          "140419.900000",
          "140419.902000",
          "140419.905000",
          "140419.908000",
          "140419.910000",
          "140419.913000",
          "140419.916000",
          "140419.918000",
          "140419.921000",
          "140419.924000",
          "140419.926000",
          "140419.929000",
          "140419.931000",
          "140419.934000",
          "140419.937000",
          "140419.939000",
          "140519.875000",
          "140519.879000",
          "140519.881000",
          "140519.884000",
          "140519.887000",
          "140519.890000",
          "140519.892000",
          "140519.895000",
          "140519.898000",
          "140519.900000",
          "140519.903000",
          "140519.906000",
          "140519.908000",
          "140519.911000",
          "140519.914000",
          "140519.917000",
          "140519.919000",
          "140519.922000",
          "140519.925000",
          "140519.927000",
          "140519.930000",
          "140519.932000",
          "140519.935000",
          "140519.937000",
          "140519.940000",
          "140519.943000",
          "140619.876000",
          "140619.879000",
          "140619.882000",
          "140619.885000",
          "140619.888000",
          "140619.891000",
          "140619.893000",
          "140619.896000",
          "140619.899000",
          "140619.902000",
          "140619.904000",
          "140619.907000",
          "140619.921000",
          "140619.924000",
          "140619.927000",
          "140619.930000",
          "140619.932000",
          "140619.935000",
          "140619.938000",
          "140619.941000",
          "140619.943000",
          "140619.946000",
          "140619.949000",
          "140619.951000",
          "140619.954000",
          "140719.875000",
          "140719.879000",
          "140719.882000",
          "140719.884000",
          "140719.887000",
          "140719.890000",
          "140719.893000",
          "140719.896000",
          "140719.899000",
          "140719.901000",
          "140719.904000",
          "140719.907000",
          "140719.909000",
          "140719.912000",
          "140719.915000",
          "140719.917000",
          "140719.920000",
          "140719.922000",
          "140719.925000",
          "140719.928000",
          "140719.930000",
          "140719.933000",
          "140719.936000",
          "140719.938000",
          "140719.941000",
          "140719.944000",
          "140729.823000",
          "140729.826000",
          "140729.829000",
          "140729.833000"
        ],
        "InstanceNumber": [
          1,
          2,
          3,
          4,
          5,
          6,
          7,
          8,
          9,
          10,
          11,
          12,
          13,
          14,
          15,
          16,
          17,
          18,
          19,
          20,
          21,
          22,
          23,
          24,
          25,
          26,
          27,
          28,
          29,
          30,
          31,
          32,
          33,
          34,
          35,
          36,
          37,
          38,
          39,
          40,
          41,
          42,
          43,
          44,
          45,
          46,
          47,
          48,
          49,
          50,
          51,
          52,
          53,
          54,
          55,
          56,
          57,
          58,
          59,
          60,
          61,
          62,
          63,
          64,
          65,
          66,
          67,
          68,
          69,
          70,
          71,
          72,
          73,
          74,
          75,
          76,
          77,
          78,
          79,
          80,
          81,
          82,
          83,
          84,
          85,
          86,
          87,
          88,
          89,
          90,
          91,
          92,
          93,
          94,
          95,
          96,
          97,
          98,
          99,
          100,
          101,
          102,
          103,
          104,
          105,
          106,
          107,
          108,
          109,
          110,
          111,
          112,
          113,
          114,
          115,
          116,
          117,
          118,
          119,
          120,
          121,
          122,
          123,
          124,
          125,
          126,
          127
        ],
        "LargestImagePixelValue": [
          1951,
          2733,
          2271,
          2555,
          2240,
          1946,
          2528,
          2406,
          2811,
          2361,
          2250,
          2238,
          2877,
          2302,
          2304,
          2291,
          2654,
          3640,
          2175,
          2071,
          2505,
          2626,
          2115,
          2103,
          2083,
          2266,
          2419,
          2758,
          2821,
          1950,
          2011,
          2986,
          2167,
          2702,
          1990,
          2694,
          2457,
          2063,
          2512,
          2154,
          2147,
          1933,
          2082,
          2234,
          2089,
          2663,
          2590,
          2155,
          2987,
          2002,
          2552,
          1977,
          2933,
          2344,
          2137,
          2097,
          2245,
          1956,
          2764,
          2223,
          2518,
          2310,
          3493,
          2447,
          2673,
          2478,
          2100,
          2264,
          2698,
          2313,
          2070,
          2294,
          2010,
          2286,
          2156,
          3123,
          2414,
          2270,
          1989,
          1978,
          2008,
          2464,
          2086,
          2820,
          2433,
          2284,
          2088,
          2019,
          2076,
          2952,
          1971,
          2870,
          2332,
          2224,
          2612,
          2655,
          2669,
          2434,
          2252,
          2198,
          2298,
          1982,
          2643,
          2342,
          2383,
          2057,
          2883,
          2095,
          2074,
          1937,
          2369,
          2991,
          2284,
          2328,
          2286,
          2806,
          2105,
          2166,
          2472,
          2541,
          2320,
          2151,
          2197,
          2123,
          2580,
          2095,
          2375
        ],
        "WindowCenter": [
          851.0,
          850.0,
          849.0,
          844.0,
          852.0,
          848.0,
          846.0,
          853.0,
          849.0,
          850.0,
          850.0,
          850.0,
          850.0,
          849.0,
          848.0,
          848.0,
          848.0,
          848.0,
          852.0,
          856.0,
          851.0,
          852.0,
          847.0,
          849.0,
          852.0,
          852.0,
          852.0,
          853.0,
          852.0,
          851.0,
          853.0,
          855.0,
          849.0,
          851.0,
          849.0,
          852.0,
          849.0,
          851.0,
          850.0,
          852.0,
          851.0,
          852.0,
          851.0,
          854.0,
          854.0,
          851.0,
          853.0,
          851.0,
          852.0,
          851.0,
          851.0,
          855.0,
          853.0,
          859.0,
          852.0,
          853.0,
          854.0,
          855.0,
          858.0,
          856.0,
          854.0,
          855.0,
          854.0,
          851.0,
          850.0,
          851.0,
          851.0,
          852.0,
          852.0,
          852.0,
          852.0,
          853.0,
          853.0,
          854.0,
          853.0,
          852.0,
          851.0,
          851.0,
          852.0,
          853.0,
          855.0,
          854.0,
          854.0,
          857.0,
          854.0,
          854.0,
          853.0,
          854.0,
          855.0,
          855.0,
          853.0,
          854.0,
          854.0,
          855.0,
          853.0,
          854.0,
          851.0,
          852.0,
          852.0,
          852.0,
          853.0,
          855.0,
          855.0,
          852.0,
          855.0,
          856.0,
          855.0,
          853.0,
          854.0,
          856.0,
          856.0,
          857.0,
          854.0,
          854.0,
          854.0,
          854.0,
          854.0,
          855.0,
          855.0,
          855.0,
          855.0,
          855.0,
          855.0,
          855.0,
          855.0,
          855.0,
          855.0
        ],
        "WindowWidth": [
          1808.0,
          1807.0,
          1803.0,
          1802.0,
          1811.0,
          1801.0,
          1796.0,
          1816.0,
          1808.0,
          1808.0,
          1807.0,
          1809.0,
          1810.0,
          1805.0,
          1805.0,
          1805.0,
          1806.0,
          1805.0,
          1811.0,
          1830.0,
          1818.0,
          1815.0,
          1801.0,
          1806.0,
          1814.0,
          1814.0,
          1815.0,
          1817.0,
          1815.0,
          1811.0,
          1816.0,
          1822.0,
          1806.0,
          1812.0,
          1806.0,
          1815.0,
          1807.0,
          1814.0,
          1809.0,
          1814.0,
          1812.0,
          1814.0,
          1812.0,
          1820.0,
          1818.0,
          1815.0,
          1817.0,
          1813.0,
          1816.0,
          1810.0,
          1815.0,
          1817.0,
          1817.0,
          1834.0,
          1814.0,
          1818.0,
          1820.0,
          1822.0,
          1833.0,
          1824.0,
          1822.0,
          1822.0,
          1823.0,
          1814.0,
          1812.0,
          1813.0,
          1814.0,
          1814.0,
          1816.0,
          1815.0,
          1815.0,
          1817.0,
          1815.0,
          1818.0,
          1817.0,
          1818.0,
          1812.0,
          1811.0,
          1813.0,
          1817.0,
          1822.0,
          1820.0,
          1819.0,
          1828.0,
          1819.0,
          1821.0,
          1818.0,
          1818.0,
          1823.0,
          1823.0,
          1817.0,
          1821.0,
          1821.0,
          1822.0,
          1818.0,
          1821.0,
          1814.0,
          1815.0,
          1815.0,
          1814.0,
          1817.0,
          1823.0,
          1824.0,
          1816.0,
          1821.0,
          1823.0,
          1824.0,
          1816.0,
          1818.0,
          1824.0,
          1825.0,
          1830.0,
          1819.0,
          1819.0,
          1819.0,
          1822.0,
          1819.0,
          1823.0,
          1824.0,
          1823.0,
          1821.0,
          1822.0,
          1821.0,
          1821.0,
          1821.0,
          1821.0,
          1823.0
        ]
      },
      "slices": {}
    }
  },
  "dummy_trs": 0,
  "dvars_nstd": 37.82889394928573,
  "dvars_std": 1.53054534373016,
  "dvars_vstd": 1.2097631587301583,
  "efc": 0.5838905826313041,
  "fber": 1829.9527587890625,
  "fd_mean": 0.5611563424901197,
  "fd_num": 68,
  "fd_perc": 53.54330708661417,
  "fwhm_avg": 1.6361675460297949,
  "fwhm_x": 1.5304200000000001,
  "fwhm_y": 1.8350766666666667,
  "fwhm_z": 1.5430059714227173,
  "gcor": 0.0574504,
  "gsr_x": -0.00010723849845817313,
  "gsr_y": 0.039585892111063004,
  "provenance": {
    "md5sum": "19cacf7ed44af604f24183f4be202108",
    "settings": {
      "fd_thres": 0.2,
      "testing": false
    },
    "software": "mriqc",
    "version": "22.0.1",
    "webapi_port": null,
    "webapi_url": "https://mriqc.nimh.nih.gov/api/v1"
  },
  "size_t": 127,
  "size_x": 64,
  "size_y": 64,
  "size_z": 34,
  "snr": 6.9792919915744385,
  "spacing_tr": 2.3399999141693115,
  "spacing_x": 3.0,
  "spacing_y": 3.0,
  "spacing_z": 3.3000001907348633,
  "summary_bg_k": 52.60735238945343,
  "summary_bg_mad": 10.366542208849076,
  "summary_bg_mean": 34.494441986083984,
  "summary_bg_median": 22.582677841186523,
  "summary_bg_n": 69773.0,
  "summary_bg_p05": 12.831495857238773,
  "summary_bg_p95": 92.74803161621094,
  "summary_bg_stdv": 44.610294342041016,
  "summary_fg_k": 3.0858371092313472,
  "summary_fg_mad": 132.18506386080134,
  "summary_fg_mean": 1001.9168701171875,
  "summary_fg_median": 996.7637939453125,
  "summary_fg_n": 36839.0,
  "summary_fg_p05": 797.1369995117187,
  "summary_fg_p95": 1218.5071166992184,
  "summary_fg_stdv": 142.8153839111328,
  "tsnr": 46.3023236815352
}