{
  "aor": 0.0045934615384615385,
  "aqi": 0.021932204076923076,
  "bids_meta": {
    "AcquisitionMatrixPE": 64,
    "AcquisitionNumber": 1,
    "AcquisitionTime": "11:48:45.780000",
    "BandwidthPerPixelPhaseEncode": 24.038,
    "BaseResolution": 64,
    "BodyPartExamined": "HEAD",
    "ConsistencyInfo": "N4_VD13A_LATEST_20120616",
    "ConversionSoftware": "dcm2niix",
    "ConversionSoftwareVersion": "v1.0.20181125  GCC6.3.0",
    "DerivedVendorReportedEchoSpacing": 0.000650012,
    "DeviceSerialNumber": "45250",
    "DwellTime": 4.6e-06,
    "EchoTime": 0.033,
    "EchoTrainLength": 64,
    "EffectiveEchoSpacing": 0.000650012,
    "FlipAngle": 90,
    "ImageOrientationPatientDICOM": [
      0.999316,
      0.0315316,
      -0.0193072,
      -0.0348969,
      0.97691,
      -0.210781
    ],
    "ImageType": [
      "ORIGINAL",
      "PRIMARY",
      "M",
      "ND",
      "NORM",
      "MOSAIC"
    ],
    "ImagingFrequency": 123.22,
    "InPlanePhaseEncodingDirectionDICOM": "COL",
    "InstitutionAddress": "Kopernikusstr._26_Graz_Graz_AT_8010",
    "InstitutionName": "KFU",
    "InstitutionalDepartmentName": "Department",
    "MRAcquisitionType": "2D",
    "MagneticFieldStrength": 3,
    "Manufacturer": "Siemens",
    "ManufacturersModelName": "Skyra",
    "Modality": "MR",
    "PartialFourier": 1,
    "PatientPosition": "HFS",
    "PercentPhaseFOV": 100,
    "PhaseEncodingDirection": "j-",
    "PhaseEncodingSteps": 64,
    "PhaseResolution": 1,
    "PixelBandwidth": 1700,
    "ProcedureStepDescription": "KFU_Entw-Psy",
    "ProtocolName": "fMRI_1",
    "PulseSequenceDetails": "%SiemensSeq%_ep2d_pace",
    "ReceiveCoilActiveElements": "HE1-4",
    "ReceiveCoilName": "HeadNeck_20",
    "ReconMatrixPE": 64,
    "RepetitionTime": 2.34,
    "SAR": 0.185904,
    "ScanOptions": "FS",
    "ScanningSequence": "EP",
    "SequenceName": "_epfid2d1_64",
    "SequenceVariant": "SK",
    "SeriesDescription": "fMRI_1",
    "SeriesNumber": 2,
    "ShimSetting": [
      -1619,
      -3647,
      -4328,
      352,
      324,
      166,
      157,
      -254
    ],
    "SliceThickness": 3,
    "SliceTiming": [
      2.25,
      2.1825,
      2.115,
      2.045,
      1.9775,
      1.91,
      1.8425,
      1.7725,
      1.705,
      1.6375,
      1.5675,
      1.5,
      1.4325,
      1.365,
      1.295,
      1.2275,
      1.16,
      1.09,
      1.0225,
      0.955,
      0.8875,
      0.8175,
      0.75,
      0.6825,
      0.6125,
      0.545,
      0.4775,
      0.4075,
      0.34,
      0.2725,
      0.205,
      0.135,
      0.0675,
      0
    ],
    "SoftwareVersions": "syngo_MR_D13",
    "SpacingBetweenSlices": 3.3,
    "StationName": "FBMTMR1",
    "TaskName": "read",
    "TotalReadoutTime": 0.0409508,
    "TxRefAmp": 336.847,
    "dataset": "ds003126",
    "dcmmeta_affine": [
      [
        -2.9979488849639893,
        -0.10469081997871399,
        -0.04030997306108475,
        96.09979248046875
      ],
      [
        -0.09459465742111206,
        2.9307308197021484,
        -0.6973240375518799,
        -107.80829620361328
      ],
      [
        -0.05792154744267464,
        0.6323419809341431,
        3.2252309322357178,
        -32.745574951171875
      ],
      [
        0.0,
        0.0,
        0.0,
        1.0
      ]
    ],
    "dcmmeta_reorient_transform": [
      [
        0.0,
        -1.0,
        0.0,
        63.0
      ],
      [
        1.0,
        0.0,
        0.0,
        0.0
      ],
      [
        0.0,
        0.0,
        1.0,
        0.0
      ],
      [
        0.0,
        0.0,
        0.0,
        1.0
      ]
    ],
    "dcmmeta_shape": [
      64,
      64,
      34,
      130
    ],
    "dcmmeta_slice_dim": 2,
    "dcmmeta_version": 0.6,
    "global": {
      "const": {
        "AcquisitionMatrix": [
          64,
          0,
          0,
          64
        ],
        "AngioFlag": "N",
        "BitsAllocated": 16,
        "BitsStored": 12,
        "BodyPartExamined": "HEAD",
        "Columns": 384,
        "EchoNumbers": 1,
        "EchoTime": 33.0,
        "EchoTrainLength": 64,
        "FlipAngle": 90.0,
        "HighBit": 11,
        "ImageOrientationPatient": [
          0.99931626318939,
          0.03153155301259,
          -0.0193071823374,
          -0.0348969396424,
          0.97691029029503,
          -0.2107806640071
        ],
        "ImagePositionPatient": [
          -552.42554689026,
          -560.87983382222,
          117.53413571879
        ],
        "ImageType": [
          "ORIGINAL",
          "PRIMARY",
          "M",
          "ND",
          "NORM",
          "MOSAIC"
        ],
        "ImagedNucleus": "1H",
        "ImagingFrequency": 123.220145,
        "InPlanePhaseEncodingDirection": "COL",
        "MRAcquisitionType": "2D",
        "MagneticFieldStrength": 3.0,
        "Manufacturer": "SIEMENS",
        "ManufacturerModelName": "Skyra",
        "Modality": "MR",
        "NumberOfAverages": 1.0,
        "NumberOfPhaseEncodingSteps": 64,
        "PercentPhaseFieldOfView": 100.0,
        "PercentSampling": 100.0,
        "PerformedProcedureStepStartTime": "113531.811000",
        "PhotometricInterpretation": "MONOCHROME2",
        "PixelBandwidth": 1700.0,
        "PixelRepresentation": 0,
        "PixelSpacing": [
          3.0,
          3.0
        ],
        "ProtocolName": "fMRI_1",
        "RepetitionTime": 2340.0,
        "Rows": 384,
        "SAR": 0.18590419281515,
        "SamplesPerPixel": 1,
        "ScanOptions": "FS",
        "ScanningSequence": "EP",
        "SequenceName": "*epfid2d1_64",
        "SequenceVariant": "SK",
        "SeriesDescription": "fMRI_1",
        "SeriesNumber": 2,
        "SeriesTime": "114941.683000",
        "SliceLocation": -10.396518193983,
        "SliceThickness": 3.0,
        "SmallestImagePixelValue": 0,
        "SoftwareVersions": "syngo MR D13",
        "SpacingBetweenSlices": 3.3000000284563,
        "SpecificCharacterSet": "ISO_IR 100",
        "StudyID": "1",
        "StudyTime": "113531.713000",
        "TransmitCoilName": "Body",
        "VariableFlipAngleFlag": "N",
        "WindowCenterWidthExplanation": "Algo1",
        "dBdt": 0.0
      },
      "slices": {}
    },
    "modality": "bold",
    "run_id": 1,
    "session_id": "2",
    "subject_id": "047EPKL014052",
    "task_id": "read",
    "time": {
      "samples": {
        "AcquisitionNumber": [
          1,
          2,
          3,
          4,
          5,
          6,
          7,
          8,
          9,
          10,
          11,
          12,
          13,
          14,
          15,
          16,
          17,
          18,
          19,
          20,
          21,
          22,
          23,
          24,
          25,
          26,
          27,
          28,
          29,
          30,
          31,
          32,
          33,
          34,
          35,
          36,
          37,
          38,
          39,
          40,
          41,
          42,
          43,
          44,
          45,
          46,
          47,
          48,
          49,
          50,
          51,
          52,
          53,
          54,
          55,
          56,
          57,
          58,
          59,
          60,
          61,
          62,
          63,
          64,
          65,
          66,
          67,
          68,
          69,
          70,
          71,
          72,
          73,
          74,
          75,
          76,
          77,
          78,
          79,
          80,
          81,
          82,
          83,
          84,
          85,
          86,
          87,
          88,
          89,
          90,
          91,
          92,
          93,
          94,
          95,
          96,
          97,
          98,
          99,
          100,
          101,
          102,
          103,
          104,
          105,
          106,
          107,
          108,
          109,
          110,
          111,
          112,
          113,
          114,
          115,
          116,
          117,
          118,
          119,
          120,
          121,
          122,
          123,
          124,
          125,
          126,
          127,
          128,
          129,
          130
        ],
        "AcquisitionTime": [
          "114845.780000",
          "114848.120000",
          "114850.460000",
          "114852.800000",
          "114855.140000",
          "114857.480000",
          "114859.820000",
          "114902.160000",
          "114904.500000",
          "114906.840000",
          "114909.180000",
          "114911.520000",
          "114913.860000",
          "114916.200000",
          "114918.540000",
          "114920.880000",
          "114923.220000",
          "114925.560000",
          "114927.900000",
          "114930.240000",
          "114932.580000",
          "114934.920000",
          "114937.260000",
          "114939.600000",
          "114941.940000",
          "114944.280000",
          "114946.620000",
          "114948.960000",
          "114951.300000",
          "114953.640000",
          "114955.980000",
          "114958.320000",
          "115000.660000",
          "115003.000000",
          "115005.340000",
          "115007.680000",
          "115010.020000",
          "115012.360000",
          "115014.700000",
          "115017.040000",
          "115019.380000",
          "115021.720000",
          "115024.060000",
          "115026.400000",
          "115028.740000",
          "115031.080000",
          "115033.420000",
          "115035.760000",
          "115038.100000",
          "115040.440000",
          "115042.780000",
          "115045.120000",
          "115047.460000",
          "115049.800000",
          "115052.140000",
          "115054.480000",
          "115056.820000",
          "115059.160000",
          "115101.500000",
          "115103.840000",
          "115106.180000",
          "115108.520000",
          "115110.860000",
          "115113.200000",
          "115115.540000",
          "115117.880000",
          "115120.220000",
          "115122.560000",
          "115124.900000",
          "115127.240000",
          "115129.580000",
          "115131.920000",
          "115134.260000",
          "115136.600000",
          "115138.940000",
          "115141.280000",
          "115143.620000",
          "115145.960000",
          "115148.300000",
          "115150.640000",
          "115152.980000",
          "115155.320000",
          "115157.660000",
          "115200.000000",
          "115202.340000",
          "115204.680000",
          "115207.020000",
          "115209.360000",
          "115211.700000",
          "115214.040000",
          "115216.380000",
          "115218.720000",
          "115221.060000",
          "115223.400000",
          "115225.740000",
          "115228.080000",
          "115230.420000",
          "115232.760000",
          "115235.100000",
          "115237.440000",
          "115239.780000",
          "115242.120000",
          "115244.460000",
          "115246.800000",
          "115249.140000",
          "115251.480000",
          "115253.820000",
          "115256.160000",
          "115258.500000",
          "115300.840000",
          "115303.180000",
          "115305.520000",
          "115307.860000",
          "115310.200000",
          "115312.540000",
          "115314.880000",
          "115317.220000",
          "115319.560000",
          "115321.900000",
          "115324.240000",
          "115326.580000",
          "115328.920000",
          "115331.260000",
          "115333.600000",
          "115335.940000",
          "115338.280000",
          "115340.620000",
          "115342.960000",
          "115345.300000",
          "115347.640000"
        ],
        "ContentTime": [
          "114941.688000",
          "114941.692000",
          "114941.695000",
          "114941.697000",
          "114941.700000",
          "114941.703000",
          "114941.705000",
          "114941.708000",
          "114941.711000",
          "114941.714000",
          "114941.717000",
          "114941.720000",
          "114941.722000",
          "114941.725000",
          "114941.728000",
          "114941.731000",
          "114941.734000",
          "114941.737000",
          "114941.739000",
          "114941.742000",
          "114941.745000",
          "114941.748000",
          "114941.757000",
          "114941.760000",
          "115041.680000",
          "115041.683000",
          "115041.686000",
          "115041.689000",
          "115041.692000",
          "115041.694000",
          "115041.697000",
          "115041.700000",
          "115041.702000",
          "115041.705000",
          "115041.708000",
          "115041.711000",
          "115041.714000",
          "115041.716000",
          "115041.719000",
          "115041.722000",
          "115041.725000",
          "115041.727000",
          "115041.730000",
          "115041.733000",
          "115041.736000",
          "115041.739000",
          "115041.741000",
          "115041.744000",
          "115041.747000",
          "115041.750000",
          "115141.681000",
          "115141.684000",
          "115141.687000",
          "115141.689000",
          "115141.692000",
          "115141.695000",
          "115141.697000",
          "115141.700000",
          "115141.703000",
          "115141.706000",
          "115141.708000",
          "115141.711000",
          "115141.714000",
          "115141.717000",
          "115141.720000",
          "115141.723000",
          "115141.726000",
          "115141.729000",
          "115141.731000",
          "115141.734000",
          "115141.737000",
          "115141.739000",
          "115141.742000",
          "115141.744000",
          "115141.747000",
          "115241.681000",
          "115241.685000",
          "115241.688000",
          "115241.691000",
          "115241.694000",
          "115241.696000",
          "115241.707000",
          "115241.709000",
          "115241.712000",
          "115241.715000",
          "115241.718000",
          "115241.721000",
          "115241.724000",
          "115241.727000",
          "115241.729000",
          "115241.732000",
          "115241.735000",
          "115241.738000",
          "115241.741000",
          "115241.744000",
          "115241.746000",
          "115241.749000",
          "115241.752000",
          "115241.755000",
          "115241.757000",
          "115241.760000",
          "115341.680000",
          "115341.683000",
          "115341.686000",
          "115341.688000",
          "115341.691000",
          "115341.694000",
          "115341.696000",
          "115341.699000",
          "115341.702000",
          "115341.705000",
          "115341.708000",
          "115341.710000",
          "115341.713000",
          "115341.716000",
          "115341.719000",
          "115341.722000",
          "115341.725000",
          "115341.728000",
          "115341.731000",
          "115341.733000",
          "115341.736000",
          "115341.739000",
          "115341.742000",
          "115341.744000",
          "115341.747000",
          "115348.752000",
          "115348.755000",
          "115348.758000",
          "115348.760000"
        ],
        "InstanceCreationTime": [
          "114941.688000",
          "114941.692000",
          "114941.695000",
          "114941.697000",
          "114941.700000",
          "114941.703000",
          "114941.705000",
          "114941.708000",
          "114941.711000",
          "114941.714000",
          "114941.717000",
          "114941.720000",
          "114941.722000",
          "114941.725000",
          "114941.728000",
          "114941.731000",
          "114941.734000",
          "114941.737000",
          "114941.739000",
          "114941.742000",
          "114941.745000",
          "114941.748000",
          "114941.757000",
          "114941.760000",
          "115041.680000",
          "115041.683000",
          "115041.686000",
          "115041.689000",
          "115041.692000",
          "115041.694000",
          "115041.697000",
          "115041.700000",
          "115041.702000",
          "115041.705000",
          "115041.708000",
          "115041.711000",
          "115041.714000",
          "115041.716000",
          "115041.719000",
          "115041.722000",
          "115041.725000",
          "115041.727000",
          "115041.730000",
          "115041.733000",
          "115041.736000",
          "115041.739000",
          "115041.741000",
          "115041.744000",
          "115041.747000",
          "115041.750000",
          "115141.681000",
          "115141.684000",
          "115141.687000",
          "115141.689000",
          "115141.692000",
          "115141.695000",
          "115141.697000",
          "115141.700000",
          "115141.703000",
          "115141.706000",
          "115141.708000",
          "115141.711000",
          "115141.714000",
          "115141.717000",
          "115141.720000",
          "115141.723000",
          "115141.726000",
          "115141.729000",
          "115141.731000",
          "115141.734000",
          "115141.737000",
          "115141.739000",
          "115141.742000",
          "115141.744000",
          "115141.747000",
          "115241.681000",
          "115241.685000",
          "115241.688000",
          "115241.691000",
          "115241.694000",
          "115241.696000",
          "115241.707000",
          "115241.709000",
          "115241.712000",
          "115241.715000",
          "115241.718000",
          "115241.721000",
          "115241.724000",
          "115241.727000",
          "115241.729000",
          "115241.732000",
          "115241.735000",
          "115241.738000",
          "115241.741000",
          "115241.744000",
          "115241.746000",
          "115241.749000",
          "115241.752000",
          "115241.755000",
          "115241.757000",
          "115241.760000",
          "115341.680000",
          "115341.683000",
          "115341.686000",
          "115341.688000",
          "115341.691000",
          "115341.694000",
          "115341.696000",
          "115341.699000",
          "115341.702000",
          "115341.705000",
          "115341.708000",
          "115341.710000",
          "115341.713000",
          "115341.716000",
          "115341.719000",
          "115341.722000",
          "115341.725000",
          "115341.728000",
          "115341.731000",
          "115341.733000",
          "115341.736000",
          "115341.739000",
          "115341.742000",
          "115341.744000",
          "115341.747000",
          "115348.752000",
          "115348.755000",
          "115348.758000",
          "115348.760000"
        ],
        "InstanceNumber": [
          1,
          2,
          3,
          4,
          5,
          6,
          7,
          8,
          9,
          10,
          11,
          12,
          13,
          14,
          15,
          16,
          17,
          18,
          19,
          20,
          21,
          22,
          23,
          24,
          25,
          26,
          27,
          28,
          29,
          30,
          31,
          32,
          33,
          34,
          35,
          36,
          37,
          38,
          39,
          40,
          41,
          42,
          43,
          44,
          45,
          46,
          47,
          48,
          49,
          50,
          51,
          52,
          53,
          54,
          55,
          56,
          57,
          58,
          59,
          60,
          61,
          62,
          63,
          64,
          65,
          66,
          67,
          68,
          69,
          70,
          71,
          72,
          73,
          74,
          75,
          76,
          77,
          78,
          79,
          80,
          81,
          82,
          83,
          84,
          85,
          86,
          87,
          88,
          89,
          90,
          91,
          92,
          93,
          94,
          95,
          96,
          97,
          98,
          99,
          100,
          101,
          102,
          103,
          104,
          105,
          106,
          107,
          108,
          109,
          110,
          111,
          112,
          113,
          114,
          115,
          116,
          117,
          118,
          119,
          120,
          121,
          122,
          123,
          124,
          125,
          126,
          127,
          128,
          129,
          130
        ],
        "LargestImagePixelValue": [
          2295,
          2151,
          2514,
          2973,
          2981,
          2401,
          2564,
          2354,
          2510,
          2205,
          2239,
          2296,
          2470,
          2463,
          2200,
          2639,
          2645,
          2918,
          2336,
          2530,
          2699,
          2437,
          1963,
          2302,
          2626,
          2289,
          2477,
          2862,
          2721,
          2107,
          2446,
          2797,
          1968,
          2545,
          2586,
          2509,
          2548,
          2530,
          2398,
          1947,
          2808,
          2508,
          2573,
          2623,
          2492,
          2379,
          2279,
          2487,
          2651,
          2403,
          2416,
          2210,
          2437,
          2721,
          2240,
          2530,
          2476,
          2082,
          2587,
          2784,
          1990,
          2515,
          2405,
          2608,
          2030,
          2528,
          2682,
          2864,
          2590,
          2530,
          2342,
          2507,
          2382,
          2716,
          2470,
          2431,
          2621,
          2394,
          2579,
          2656,
          2273,
          2625,
          2473,
          2667,
          2447,
          2946,
          2619,
          2351,
          2511,
          2242,
          2343,
          2695,
          2717,
          2043,
          2676,
          2699,
          2217,
          2521,
          2593,
          2345,
          2662,
          2289,
          2303,
          2750,
          2541,
          2530,
          2720,
          2173,
          2775,
          2632,
          2162,
          2503,
          2692,
          2361,
          2476,
          2500,
          2614,
          2421,
          2366,
          2400,
          2588,
          2083,
          2640,
          2801,
          2811,
          2421,
          2620,
          2558,
          2364,
          2552
        ],
        "WindowCenter": [
          771.0,
          771.0,
          773.0,
          771.0,
          769.0,
          766.0,
          768.0,
          769.0,
          771.0,
          770.0,
          772.0,
          774.0,
          772.0,
          778.0,
          772.0,
          775.0,
          775.0,
          772.0,
          771.0,
          772.0,
          771.0,
          771.0,
          771.0,
          772.0,
          772.0,
          774.0,
          774.0,
          773.0,
          772.0,
          776.0,
          776.0,
          775.0,
          773.0,
          775.0,
          774.0,
          771.0,
          774.0,
          774.0,
          772.0,
          772.0,
          777.0,
          771.0,
          775.0,
          776.0,
          777.0,
          775.0,
          774.0,
          775.0,
          775.0,
          774.0,
          774.0,
          776.0,
          774.0,
          774.0,
          773.0,
          776.0,
          775.0,
          776.0,
          775.0,
          774.0,
          771.0,
          779.0,
          775.0,
          775.0,
          774.0,
          774.0,
          775.0,
          775.0,
          771.0,
          777.0,
          773.0,
          772.0,
          774.0,
          776.0,
          772.0,
          776.0,
          775.0,
          775.0,
          775.0,
          774.0,
          775.0,
          774.0,
          774.0,
          776.0,
          774.0,
          776.0,
          772.0,
          778.0,
          777.0,
          777.0,
          780.0,
          779.0,
          778.0,
          777.0,
          778.0,
          781.0,
          779.0,
          782.0,
          780.0,
          779.0,
          781.0,
          780.0,
          780.0,
          779.0,
          777.0,
          780.0,
          781.0,
          779.0,
          781.0,
          779.0,
          779.0,
          784.0,
          781.0,
          780.0,
          781.0,
          779.0,
          778.0,
          780.0,
          779.0,
          777.0,
          778.0,
          780.0,
          778.0,
          780.0,
          779.0,
          783.0,
          780.0,
          781.0,
          780.0,
          782.0
        ],
        "WindowWidth": [
          1649.0,
          1649.0,
          1654.0,
          1649.0,
          1645.0,
          1636.0,
          1642.0,
          1645.0,
          1650.0,
          1646.0,
          1651.0,
          1657.0,
          1652.0,
          1670.0,
          1654.0,
          1659.0,
          1662.0,
          1655.0,
          1648.0,
          1653.0,
          1648.0,
          1649.0,
          1648.0,
          1653.0,
          1654.0,
          1657.0,
          1657.0,
          1654.0,
          1650.0,
          1663.0,
          1663.0,
          1663.0,
          1654.0,
          1661.0,
          1658.0,
          1651.0,
          1656.0,
          1659.0,
          1652.0,
          1653.0,
          1667.0,
          1648.0,
          1658.0,
          1666.0,
          1663.0,
          1659.0,
          1657.0,
          1660.0,
          1661.0,
          1655.0,
          1655.0,
          1663.0,
          1659.0,
          1655.0,
          1653.0,
          1665.0,
          1658.0,
          1661.0,
          1662.0,
          1657.0,
          1650.0,
          1669.0,
          1659.0,
          1661.0,
          1656.0,
          1657.0,
          1660.0,
          1660.0,
          1647.0,
          1666.0,
          1654.0,
          1653.0,
          1656.0,
          1662.0,
          1652.0,
          1663.0,
          1660.0,
          1659.0,
          1659.0,
          1657.0,
          1660.0,
          1657.0,
          1658.0,
          1665.0,
          1657.0,
          1666.0,
          1650.0,
          1670.0,
          1665.0,
          1667.0,
          1673.0,
          1673.0,
          1669.0,
          1667.0,
          1672.0,
          1675.0,
          1670.0,
          1681.0,
          1676.0,
          1673.0,
          1677.0,
          1674.0,
          1676.0,
          1671.0,
          1666.0,
          1676.0,
          1675.0,
          1672.0,
          1679.0,
          1671.0,
          1669.0,
          1687.0,
          1677.0,
          1673.0,
          1678.0,
          1670.0,
          1668.0,
          1673.0,
          1673.0,
          1665.0,
          1668.0,
          1675.0,
          1671.0,
          1672.0,
          1671.0,
          1683.0,
          1675.0,
          1678.0,
          1675.0,
          1679.0
        ]
      },
      "slices": {}
    }
  },
  "dummy_trs": 0,
  "dvars_nstd": 46.66554517511627,
  "dvars_std": 1.283878410930232,
  "dvars_vstd": 1.0135929637209302,
  "efc": 0.5469767034620033,
  "fber": 1727.401123046875,
  "fd_mean": 0.66561420762901,
  "fd_num": 117,
  "fd_perc": 90.0,
  "fwhm_avg": 1.6082088318461552,
  "fwhm_x": 1.5231733333333333,
  "fwhm_y": 1.7800500000000001,
  "fwhm_z": 1.521403162205132,
  "gcor": 0.105422,
  "gsr_x": -0.006419258192181587,
  "gsr_y": 0.03626643493771553,
  "provenance": {
    "md5sum": "38f3ac290626ce4d66dd692f66e864b6",
    "settings": {
      "fd_thres": 0.2,
      "testing": false
    },
    "software": "mriqc",
    "version": "22.0.1",
    "webapi_port": null,
    "webapi_url": "https://mriqc.nimh.nih.gov/api/v1"
  },
  "size_t": 130,
  "size_x": 64,
  "size_y": 64,
  "size_z": 34,
  "snr": 7.267268372043155,
  "spacing_tr": 2.3399999141693115,
  "spacing_x": 3.0,
  "spacing_y": 3.0,
  "spacing_z": 3.299999713897705,
  "summary_bg_k": 55.273299265540864,
  "summary_bg_mad": 9.374608287235013,
  "summary_bg_mean": 34.73041534423828,
  "summary_bg_median": 21.669231414794922,
  "summary_bg_n": 76737.0,
  "summary_bg_p05": 12.476922988891602,
  "summary_bg_p95": 91.65692291259761,
  "summary_bg_stdv": 49.663841247558594,
  "summary_fg_k": 1.9760613944802383,
  "summary_fg_mad": 128.07397368813727,
  "summary_fg_mean": 918.2821655273438,
  "summary_fg_median": 918.7999877929688,
  "summary_fg_n": 30419.0,
  "summary_fg_p05": 730.4269348144531,
  "summary_fg_p95": 1108.39541015625,
  "summary_fg_stdv": 126.42781829833984,
  "tsnr": 41.55578631616663
}