{
  "aor": 0.002994615384615385,
  "aqi": 0.016092970923076926,
  "bids_meta": {
    "AcquisitionMatrixPE": 64,
    "AcquisitionNumber": 1,
    "AcquisitionTime": "11:54:48.005000",
    "BandwidthPerPixelPhaseEncode": 24.038,
    "BaseResolution": 64,
    "BodyPartExamined": "HEAD",
    "ConsistencyInfo": "N4_VD13A_LATEST_20120616",
    "ConversionSoftware": "dcm2niix",
    "ConversionSoftwareVersion": "v1.0.20181125  GCC6.3.0",
    "DerivedVendorReportedEchoSpacing": 0.000650012,
    "DeviceSerialNumber": "45250",
    "DwellTime": 4.6e-06,
    "EchoTime": 0.033,
    "EchoTrainLength": 64,
    "EffectiveEchoSpacing": 0.000650012,
    "FlipAngle": 90,
    "ImageOrientationPatientDICOM": [
      0.999316,
      0.0315316,
      -0.0193072,
      -0.0348969,
      0.97691,
      -0.210781
    ],
    "ImageType": [
      "ORIGINAL",
      "PRIMARY",
      "M",
      "ND",
      "NORM",
      "MOSAIC"
    ],
    "ImagingFrequency": 123.22,
    "InPlanePhaseEncodingDirectionDICOM": "COL",
    "InstitutionAddress": "Kopernikusstr._26_Graz_Graz_AT_8010",
    "InstitutionName": "KFU",
    "InstitutionalDepartmentName": "Department",
    "MRAcquisitionType": "2D",
    "MagneticFieldStrength": 3,
    "Manufacturer": "Siemens",
    "ManufacturersModelName": "Skyra",
    "Modality": "MR",
    "PartialFourier": 1,
    "PatientPosition": "HFS",
    "PercentPhaseFOV": 100,
    "PhaseEncodingDirection": "j-",
    "PhaseEncodingSteps": 64,
    "PhaseResolution": 1,
    "PixelBandwidth": 1700,
    "ProcedureStepDescription": "KFU_Entw-Psy",
    "ProtocolName": "fMRI_2",
    "PulseSequenceDetails": "%SiemensSeq%_ep2d_pace",
    "ReceiveCoilActiveElements": "HE1-4",
    "ReceiveCoilName": "HeadNeck_20",
    "ReconMatrixPE": 64,
    "RepetitionTime": 2.34,
    "SAR": 0.185904,
    "ScanOptions": "FS",
    "ScanningSequence": "EP",
    "SequenceName": "_epfid2d1_64",
    "SequenceVariant": "SK",
    "SeriesDescription": "fMRI_2",
    "SeriesNumber": 5,
    "ShimSetting": [
      -1619,
      -3647,
      -4328,
      352,
      324,
      166,
      157,
      -254
    ],
    "SliceThickness": 3,
    "SliceTiming": [
      2.2525,
      2.185,
      2.1175,
      2.0475,
      1.98,
      1.9125,
      1.8425,
      1.775,
      1.7075,
      1.6375,
      1.57,
      1.5025,
      1.435,
      1.365,
      1.2975,
      1.23,
      1.16,
      1.0925,
      1.025,
      0.9575,
      0.8875,
      0.82,
      0.7525,
      0.6825,
      0.615,
      0.5475,
      0.48,
      0.41,
      0.3425,
      0.275,
      0.205,
      0.1375,
      0.07,
      0
    ],
    "SoftwareVersions": "syngo_MR_D13",
    "SpacingBetweenSlices": 3.3,
    "StationName": "FBMTMR1",
    "TaskName": "read",
    "TotalReadoutTime": 0.0409508,
    "TxRefAmp": 336.847,
    "dataset": "ds003126",
    "dcmmeta_affine": [
      [
        -2.9979488849639893,
        -0.10469081997871399,
        -0.04030997306108475,
        96.09979248046875
      ],
      [
        -0.09459465742111206,
        2.9307308197021484,
        -0.6973240375518799,
        -107.80829620361328
      ],
      [
        -0.05792154744267464,
        0.6323419809341431,
        3.2252309322357178,
        -32.745574951171875
      ],
      [
        0.0,
        0.0,
        0.0,
        1.0
      ]
    ],
    "dcmmeta_reorient_transform": [
      [
        0.0,
        -1.0,
        0.0,
        63.0
      ],
      [
        1.0,
        0.0,
        0.0,
        0.0
      ],
      [
        0.0,
        0.0,
        1.0,
        0.0
      ],
      [
        0.0,
        0.0,
        0.0,
        1.0
      ]
    ],
    "dcmmeta_shape": [
      64,
      64,
      34,
      130
    ],
    "dcmmeta_slice_dim": 2,
    "dcmmeta_version": 0.6,
    "global": {
      "const": {
        "AcquisitionMatrix": [
          64,
          0,
          0,
          64
        ],
        "AngioFlag": "N",
        "BitsAllocated": 16,
        "BitsStored": 12,
        "BodyPartExamined": "HEAD",
        "Columns": 384,
        "EchoNumbers": 1,
        "EchoTime": 33.0,
        "EchoTrainLength": 64,
        "FlipAngle": 90.0,
        "HighBit": 11,
        "ImageOrientationPatient": [
          0.99931626318939,
          0.03153155301259,
          -0.0193071823374,
          -0.0348969396424,
          0.97691029029503,
          -0.2107806640071
        ],
        "ImagePositionPatient": [
          -552.42554689026,
          -560.87983382222,
          117.53413571879
        ],
        "ImageType": [
          "ORIGINAL",
          "PRIMARY",
          "M",
          "ND",
          "NORM",
          "MOSAIC"
        ],
        "ImagedNucleus": "1H",
        "ImagingFrequency": 123.220147,
        "InPlanePhaseEncodingDirection": "COL",
        "MRAcquisitionType": "2D",
        "MagneticFieldStrength": 3.0,
        "Manufacturer": "SIEMENS",
        "ManufacturerModelName": "Skyra",
        "Modality": "MR",
        "NumberOfAverages": 1.0,
        "NumberOfPhaseEncodingSteps": 64,
        "PercentPhaseFieldOfView": 100.0,
        "PercentSampling": 100.0,
        "PerformedProcedureStepStartTime": "113531.811000",
        "PhotometricInterpretation": "MONOCHROME2",
        "PixelBandwidth": 1700.0,
        "PixelRepresentation": 0,
        "PixelSpacing": [
          3.0,
          3.0
        ],
        "ProtocolName": "fMRI_2",
        "RepetitionTime": 2340.0,
        "Rows": 384,
        "SAR": 0.18590419281515,
        "SamplesPerPixel": 1,
        "ScanOptions": "FS",
        "ScanningSequence": "EP",
        "SequenceName": "*epfid2d1_64",
        "SequenceVariant": "SK",
        "SeriesDescription": "fMRI_2",
        "SeriesNumber": 5,
        "SeriesTime": "115546.997000",
        "SliceLocation": -10.396518193983,
        "SliceThickness": 3.0,
        "SmallestImagePixelValue": 0,
        "SoftwareVersions": "syngo MR D13",
        "SpacingBetweenSlices": 3.3000000284563,
        "SpecificCharacterSet": "ISO_IR 100",
        "StudyID": "1",
        "StudyTime": "113531.713000",
        "TransmitCoilName": "Body",
        "VariableFlipAngleFlag": "N",
        "WindowCenterWidthExplanation": "Algo1",
        "dBdt": 0.0
      },
      "slices": {}
    },
    "modality": "bold",
    "run_id": 2,
    "session_id": "2",
    "subject_id": "047EPKL014052",
    "task_id": "read",
    "time": {
      "samples": {
        "AcquisitionNumber": [
          1,
          2,
          3,
          4,
          5,
          6,
          7,
          8,
          9,
          10,
          11,
          12,
          13,
          14,
          15,
          16,
          17,
          18,
          19,
          20,
          21,
          22,
          23,
          24,
          25,
          26,
          27,
          28,
          29,
          30,
          31,
          32,
          33,
          34,
          35,
          36,
          37,
          38,
          39,
          40,
          41,
          42,
          43,
          44,
          45,
          46,
          47,
          48,
          49,
          50,
          51,
          52,
          53,
          54,
          55,
          56,
          57,
          58,
          59,
          60,
          61,
          62,
          63,
          64,
          65,
          66,
          67,
          68,
          69,
          70,
          71,
          72,
          73,
          74,
          75,
          76,
          77,
          78,
          79,
          80,
          81,
          82,
          83,
          84,
          85,
          86,
          87,
          88,
          89,
          90,
          91,
          92,
          93,
          94,
          95,
          96,
          97,
          98,
          99,
          100,
          101,
          102,
          103,
          104,
          105,
          106,
          107,
          108,
          109,
          110,
          111,
          112,
          113,
          114,
          115,
          116,
          117,
          118,
          119,
          120,
          121,
          122,
          123,
          124,
          125,
          126,
          127,
          128,
          129,
          130
        ],
        "AcquisitionTime": [
          "115448.005000",
          "115450.345000",
          "115452.685000",
          "115455.025000",
          "115457.365000",
          "115459.705000",
          "115502.045000",
          "115504.385000",
          "115506.725000",
          "115509.065000",
          "115511.405000",
          "115513.745000",
          "115516.085000",
          "115518.425000",
          "115520.765000",
          "115523.105000",
          "115525.445000",
          "115527.785000",
          "115530.125000",
          "115532.465000",
          "115534.805000",
          "115537.145000",
          "115539.485000",
          "115541.825000",
          "115544.165000",
          "115546.505000",
          "115548.845000",
          "115551.185000",
          "115553.525000",
          "115555.865000",
          "115558.205000",
          "115600.545000",
          "115602.885000",
          "115605.225000",
          "115607.565000",
          "115609.905000",
          "115612.245000",
          "115614.585000",
          "115616.925000",
          "115619.265000",
          "115621.605000",
          "115623.945000",
          "115626.285000",
          "115628.625000",
          "115630.965000",
          "115633.305000",
          "115635.645000",
          "115637.985000",
          "115640.325000",
          "115642.665000",
          "115645.005000",
          "115647.345000",
          "115649.685000",
          "115652.025000",
          "115654.365000",
          "115656.705000",
          "115659.045000",
          "115701.385000",
          "115703.725000",
          "115706.065000",
          "115708.405000",
          "115710.745000",
          "115713.085000",
          "115715.425000",
          "115717.765000",
          "115720.105000",
          "115722.445000",
          "115724.785000",
          "115727.125000",
          "115729.465000",
          "115731.805000",
          "115734.145000",
          "115736.485000",
          "115738.825000",
          "115741.165000",
          "115743.505000",
          "115745.845000",
          "115748.185000",
          "115750.525000",
          "115752.865000",
          "115755.205000",
          "115757.545000",
          "115759.885000",
          "115802.225000",
          "115804.565000",
          "115806.905000",
          "115809.245000",
          "115811.585000",
          "115813.925000",
          "115816.265000",
          "115818.605000",
          "115820.945000",
          "115823.285000",
          "115825.625000",
          "115827.965000",
          "115830.305000",
          "115832.645000",
          "115834.985000",
          "115837.325000",
          "115839.665000",
          "115842.005000",
          "115844.345000",
          "115846.685000",
          "115849.025000",
          "115851.365000",
          "115853.705000",
          "115856.045000",
          "115858.385000",
          "115900.725000",
          "115903.065000",
          "115905.405000",
          "115907.745000",
          "115910.085000",
          "115912.425000",
          "115914.765000",
          "115917.105000",
          "115919.445000",
          "115921.785000",
          "115924.125000",
          "115926.465000",
          "115928.805000",
          "115931.145000",
          "115933.485000",
          "115935.825000",
          "115938.165000",
          "115940.505000",
          "115942.845000",
          "115945.185000",
          "115947.525000",
          "115949.865000"
        ],
        "ContentTime": [
          "115547.002000",
          "115547.006000",
          "115547.009000",
          "115547.011000",
          "115547.014000",
          "115547.016000",
          "115547.019000",
          "115547.022000",
          "115547.024000",
          "115547.027000",
          "115547.030000",
          "115547.033000",
          "115547.035000",
          "115547.038000",
          "115547.040000",
          "115547.043000",
          "115547.046000",
          "115547.049000",
          "115547.052000",
          "115547.055000",
          "115547.057000",
          "115547.060000",
          "115547.063000",
          "115547.065000",
          "115547.068000",
          "115547.070000",
          "115646.995000",
          "115647.000000",
          "115647.002000",
          "115647.005000",
          "115647.008000",
          "115647.010000",
          "115647.013000",
          "115647.015000",
          "115647.018000",
          "115647.021000",
          "115647.023000",
          "115647.026000",
          "115647.028000",
          "115647.031000",
          "115647.033000",
          "115647.036000",
          "115647.039000",
          "115647.041000",
          "115647.044000",
          "115647.060000",
          "115647.062000",
          "115647.065000",
          "115647.067000",
          "115647.070000",
          "115647.073000",
          "115746.996000",
          "115746.999000",
          "115747.002000",
          "115747.004000",
          "115747.007000",
          "115747.010000",
          "115747.012000",
          "115747.015000",
          "115747.017000",
          "115747.020000",
          "115747.022000",
          "115747.025000",
          "115747.028000",
          "115747.030000",
          "115747.033000",
          "115747.035000",
          "115747.038000",
          "115747.040000",
          "115747.043000",
          "115747.046000",
          "115747.048000",
          "115747.051000",
          "115747.054000",
          "115747.056000",
          "115747.059000",
          "115747.061000",
          "115846.995000",
          "115846.998000",
          "115847.002000",
          "115847.005000",
          "115847.008000",
          "115847.010000",
          "115847.013000",
          "115847.016000",
          "115847.019000",
          "115847.021000",
          "115847.024000",
          "115847.026000",
          "115847.029000",
          "115847.032000",
          "115847.034000",
          "115847.037000",
          "115847.040000",
          "115847.043000",
          "115847.046000",
          "115847.049000",
          "115847.052000",
          "115847.055000",
          "115847.066000",
          "115847.069000",
          "115847.071000",
          "115946.995000",
          "115947.000000",
          "115947.002000",
          "115947.005000",
          "115947.007000",
          "115947.010000",
          "115947.013000",
          "115947.015000",
          "115947.018000",
          "115947.020000",
          "115947.023000",
          "115947.026000",
          "115947.029000",
          "115947.032000",
          "115947.034000",
          "115947.037000",
          "115947.040000",
          "115947.043000",
          "115947.046000",
          "115947.049000",
          "115947.052000",
          "115947.055000",
          "115947.057000",
          "115947.060000",
          "115947.063000",
          "115947.066000",
          "115950.333000",
          "115950.336000"
        ],
        "InstanceCreationTime": [
          "115547.002000",
          "115547.006000",
          "115547.009000",
          "115547.011000",
          "115547.014000",
          "115547.016000",
          "115547.019000",
          "115547.022000",
          "115547.024000",
          "115547.027000",
          "115547.030000",
          "115547.033000",
          "115547.035000",
          "115547.038000",
          "115547.040000",
          "115547.043000",
          "115547.046000",
          "115547.049000",
          "115547.052000",
          "115547.055000",
          "115547.057000",
          "115547.060000",
          "115547.063000",
          "115547.065000",
          "115547.068000",
          "115547.070000",
          "115646.995000",
          "115647.000000",
          "115647.002000",
          "115647.005000",
          "115647.008000",
          "115647.010000",
          "115647.013000",
          "115647.015000",
          "115647.018000",
          "115647.021000",
          "115647.023000",
          "115647.026000",
          "115647.028000",
          "115647.031000",
          "115647.033000",
          "115647.036000",
          "115647.039000",
          "115647.041000",
          "115647.044000",
          "115647.060000",
          "115647.062000",
          "115647.065000",
          "115647.067000",
          "115647.070000",
          "115647.073000",
          "115746.996000",
          "115746.999000",
          "115747.002000",
          "115747.004000",
          "115747.007000",
          "115747.010000",
          "115747.012000",
          "115747.015000",
          "115747.017000",
          "115747.020000",
          "115747.022000",
          "115747.025000",
          "115747.028000",
          "115747.030000",
          "115747.033000",
          "115747.035000",
          "115747.038000",
          "115747.040000",
          "115747.043000",
          "115747.046000",
          "115747.048000",
          "115747.051000",
          "115747.054000",
          "115747.056000",
          "115747.059000",
          "115747.061000",
          "115846.995000",
          "115846.998000",
          "115847.002000",
          "115847.005000",
          "115847.008000",
          "115847.010000",
          "115847.013000",
          "115847.016000",
          "115847.019000",
          "115847.021000",
          "115847.024000",
          "115847.026000",
          "115847.029000",
          "115847.032000",
          "115847.034000",
          "115847.037000",
          "115847.040000",
          "115847.043000",
          "115847.046000",
          "115847.049000",
          "115847.052000",
          "115847.055000",
          "115847.066000",
          "115847.069000",
          "115847.071000",
          "115946.995000",
          "115947.000000",
          "115947.002000",
          "115947.005000",
          "115947.007000",
          "115947.010000",
          "115947.013000",
          "115947.015000",
          "115947.018000",
          "115947.020000",
          "115947.023000",
          "115947.026000",
          "115947.029000",
          "115947.032000",
          "115947.034000",
          "115947.037000",
          "115947.040000",
          "115947.043000",
          "115947.046000",
          "115947.049000",
          "115947.052000",
          "115947.055000",
          "115947.057000",
          "115947.060000",
          "115947.063000",
          "115947.066000",
          "115950.333000",
          "115950.336000"
        ],
        "InstanceNumber": [
          1,
          2,
          3,
          4,
          5,
          6,
          7,
          8,
          9,
          10,
          11,
          12,
          13,
          14,
          15,
          16,
          17,
          18,
          19,
          20,
          21,
          22,
          23,
          24,
          25,
          26,
          27,
          28,
          29,
          30,
          31,
          32,
          33,
          34,
          35,
          36,
          37,
          38,
          39,
          40,
          41,
          42,
          43,
          44,
          45,
          46,
          47,
          48,
          49,
          50,
          51,
          52,
          53,
          54,
          55,
          56,
          57,
          58,
          59,
          60,
          61,
          62,
          63,
          64,
          65,
          66,
          67,
          68,
          69,
          70,
          71,
          72,
          73,
          74,
          75,
          76,
          77,
          78,
          79,
          80,
          81,
          82,
          83,
          84,
          85,
          86,
          87,
          88,
          89,
          90,
          91,
          92,
          93,
          94,
          95,
          96,
          97,
          98,
          99,
          100,
          101,
          102,
          103,
          104,
          105,
          106,
          107,
          108,
          109,
          110,
          111,
          112,
          113,
          114,
          115,
          116,
          117,
          118,
          119,
          120,
          121,
          122,
          123,
          124,
          125,
          126,
          127,
          128,
          129,
          130
        ],
        "LargestImagePixelValue": [
          2755,
          2537,
          2700,
          2932,
          3174,
          2438,
          2640,
          2627,
          2657,
          2836,
          2582,
          2587,
          2523,
          2780,
          2691,
          2091,
          2593,
          2602,
          2367,
          2573,
          2796,
          2512,
          2479,
          2387,
          2550,
          2604,
          2792,
          2897,
          2640,
          2586,
          2632,
          2338,
          2492,
          2941,
          2458,
          2464,
          2633,
          2755,
          2476,
          2462,
          2917,
          2464,
          2242,
          2481,
          2585,
          2726,
          2472,
          2632,
          2442,
          2552,
          2525,
          2381,
          2690,
          2640,
          2591,
          2445,
          2288,
          2448,
          2555,
          2535,
          2545,
          2602,
          3313,
          2524,
          2514,
          2593,
          2620,
          2721,
          2508,
          2581,
          2487,
          2408,
          2843,
          2303,
          3052,
          3201,
          2568,
          2291,
          2616,
          2750,
          2656,
          2736,
          2352,
          2752,
          2686,
          2476,
          2591,
          2297,
          2486,
          2573,
          2622,
          2379,
          2696,
          2401,
          2712,
          3120,
          2694,
          2544,
          2615,
          2708,
          2685,
          3253,
          2335,
          2721,
          3003,
          2440,
          2767,
          2548,
          2763,
          2047,
          2746,
          2822,
          2439,
          2562,
          2718,
          2203,
          2595,
          2804,
          2471,
          3236,
          2412,
          2494,
          2482,
          2779,
          2408,
          2621,
          2412,
          2779,
          2566,
          2554
        ],
        "WindowCenter": [
          776.0,
          776.0,
          776.0,
          776.0,
          775.0,
          773.0,
          775.0,
          776.0,
          774.0,
          775.0,
          775.0,
          775.0,
          775.0,
          776.0,
          776.0,
          778.0,
          778.0,
          778.0,
          775.0,
          778.0,
          776.0,
          774.0,
          773.0,
          780.0,
          777.0,
          774.0,
          777.0,
          778.0,
          774.0,
          779.0,
          778.0,
          778.0,
          778.0,
          778.0,
          777.0,
          780.0,
          776.0,
          777.0,
          776.0,
          780.0,
          778.0,
          776.0,
          776.0,
          778.0,
          779.0,
          780.0,
          774.0,
          780.0,
          778.0,
          776.0,
          778.0,
          780.0,
          779.0,
          783.0,
          779.0,
          779.0,
          778.0,
          780.0,
          780.0,
          778.0,
          781.0,
          778.0,
          779.0,
          779.0,
          779.0,
          779.0,
          781.0,
          778.0,
          778.0,
          778.0,
          780.0,
          779.0,
          782.0,
          780.0,
          781.0,
          780.0,
          778.0,
          779.0,
          781.0,
          781.0,
          780.0,
          781.0,
          780.0,
          780.0,
          780.0,
          780.0,
          780.0,
          780.0,
          780.0,
          780.0,
          781.0,
          781.0,
          781.0,
          783.0,
          782.0,
          780.0,
          780.0,
          781.0,
          781.0,
          784.0,
          781.0,
          782.0,
          780.0,
          780.0,
          777.0,
          782.0,
          782.0,
          781.0,
          782.0,
          780.0,
          782.0,
          780.0,
          782.0,
          781.0,
          780.0,
          780.0,
          782.0,
          780.0,
          780.0,
          784.0,
          780.0,
          782.0,
          781.0,
          784.0,
          780.0,
          786.0,
          783.0,
          783.0,
          784.0,
          784.0
        ],
        "WindowWidth": [
          1662.0,
          1662.0,
          1662.0,
          1662.0,
          1659.0,
          1653.0,
          1659.0,
          1662.0,
          1656.0,
          1658.0,
          1658.0,
          1659.0,
          1659.0,
          1663.0,
          1662.0,
          1665.0,
          1667.0,
          1669.0,
          1661.0,
          1667.0,
          1664.0,
          1657.0,
          1655.0,
          1674.0,
          1664.0,
          1657.0,
          1664.0,
          1667.0,
          1656.0,
          1671.0,
          1666.0,
          1666.0,
          1666.0,
          1669.0,
          1663.0,
          1672.0,
          1664.0,
          1663.0,
          1660.0,
          1673.0,
          1669.0,
          1664.0,
          1663.0,
          1667.0,
          1673.0,
          1671.0,
          1658.0,
          1674.0,
          1669.0,
          1662.0,
          1668.0,
          1672.0,
          1669.0,
          1683.0,
          1672.0,
          1670.0,
          1668.0,
          1673.0,
          1673.0,
          1668.0,
          1675.0,
          1668.0,
          1672.0,
          1669.0,
          1672.0,
          1672.0,
          1677.0,
          1668.0,
          1669.0,
          1668.0,
          1672.0,
          1671.0,
          1681.0,
          1673.0,
          1675.0,
          1674.0,
          1667.0,
          1670.0,
          1679.0,
          1674.0,
          1672.0,
          1677.0,
          1673.0,
          1671.0,
          1673.0,
          1674.0,
          1671.0,
          1673.0,
          1676.0,
          1673.0,
          1675.0,
          1677.0,
          1675.0,
          1683.0,
          1680.0,
          1674.0,
          1672.0,
          1678.0,
          1677.0,
          1686.0,
          1679.0,
          1678.0,
          1671.0,
          1674.0,
          1667.0,
          1680.0,
          1678.0,
          1677.0,
          1677.0,
          1673.0,
          1681.0,
          1673.0,
          1678.0,
          1677.0,
          1672.0,
          1672.0,
          1681.0,
          1673.0,
          1676.0,
          1682.0,
          1673.0,
          1681.0,
          1680.0,
          1685.0,
          1675.0,
          1691.0,
          1684.0,
          1683.0,
          1683.0,
          1683.0
        ]
      },
      "slices": {}
    }
  },
  "dummy_trs": 0,
  "dvars_nstd": 42.77219316953489,
  "dvars_std": 1.313513282635659,
  "dvars_vstd": 1.025135740775194,
  "efc": 0.5483458235485653,
  "fber": 1686.923095703125,
  "fd_mean": 0.5133800596822432,
  "fd_num": 112,
  "fd_perc": 86.15384615384616,
  "fwhm_avg": 1.6035753974401932,
  "fwhm_x": 1.5221166666666666,
  "fwhm_y": 1.76937,
  "fwhm_z": 1.5192395256539135,
  "gcor": 0.0836047,
  "gsr_x": -0.007894409820437431,
  "gsr_y": 0.03752822428941727,
  "provenance": {
    "md5sum": "063b2cdfefc3afd08c5a890679694c61",
    "settings": {
      "fd_thres": 0.2,
      "testing": false
    },
    "software": "mriqc",
    "version": "22.0.1",
    "webapi_port": null,
    "webapi_url": "https://mriqc.nimh.nih.gov/api/v1"
  },
  "size_t": 130,
  "size_x": 64,
  "size_y": 64,
  "size_z": 34,
  "snr": 7.167320560705458,
  "spacing_tr": 2.3399999141693115,
  "spacing_x": 3.0,
  "spacing_y": 3.0,
  "spacing_z": 3.299999713897705,
  "summary_bg_k": 54.16879825836488,
  "summary_bg_mad": 9.705342476017993,
  "summary_bg_mean": 35.62192153930664,
  "summary_bg_median": 21.984615325927734,
  "summary_bg_n": 76618.0,
  "summary_bg_p05": 12.515384674072266,
  "summary_bg_p95": 94.90115509033198,
  "summary_bg_stdv": 51.41945266723633,
  "summary_fg_k": 1.8935214456691503,
  "summary_fg_mad": 129.56797775475883,
  "summary_fg_mean": 923.3126831054688,
  "summary_fg_median": 922.6384887695312,
  "summary_fg_n": 30443.0,
  "summary_fg_p05": 731.5315307617187,
  "summary_fg_p95": 1117.4861572265625,
  "summary_fg_stdv": 128.7263946533203,
  "tsnr": 49.44920423254371
}