{
  "aor": 0.005793739837398374,
  "aqi": 0.013827007723577233,
  "bids_meta": {
    "AcquisitionMatrixPE": 64,
    "AcquisitionNumber": 1,
    "AcquisitionTime": "10:44:2.882500",
    "BandwidthPerPixelPhaseEncode": 24.038,
    "BaseResolution": 64,
    "BodyPartExamined": "HEAD",
    "ConsistencyInfo": "N4_VD13A_LATEST_20120616",
    "ConversionSoftware": "dcm2niix",
    "ConversionSoftwareVersion": "v1.0.20181125  GCC6.3.0",
    "DerivedVendorReportedEchoSpacing": 0.000650012,
    "DeviceSerialNumber": "45250",
    "DwellTime": 4.6e-06,
    "EchoTime": 0.033,
    "EchoTrainLength": 64,
    "EffectiveEchoSpacing": 0.000650012,
    "FlipAngle": 90,
    "ImageOrientationPatientDICOM": [
      0.997653,
      -0.0597411,
      -0.0334557,
      0.0505389,
      0.972146,
      -0.228864
    ],
    "ImageType": [
      "ORIGINAL",
      "PRIMARY",
      "M",
      "ND",
      "NORM",
      "MOSAIC"
    ],
    "ImagingFrequency": 123.214,
    "InPlanePhaseEncodingDirectionDICOM": "COL",
    "InstitutionAddress": "Kopernikusstr._26_Graz_Graz_AT_8010",
    "InstitutionName": "KFU",
    "InstitutionalDepartmentName": "Department",
    "MRAcquisitionType": "2D",
    "MagneticFieldStrength": 3,
    "Manufacturer": "Siemens",
    "ManufacturersModelName": "Skyra",
    "Modality": "MR",
    "PartialFourier": 1,
    "PatientPosition": "HFS",
    "PercentPhaseFOV": 100,
    "PhaseEncodingDirection": "j-",
    "PhaseEncodingSteps": 64,
    "PhaseResolution": 1,
    "PixelBandwidth": 1700,
    "ProcedureStepDescription": "KFU_Entw-Psy",
    "ProtocolName": "fMRI_3",
    "PulseSequenceDetails": "%SiemensSeq%_ep2d_pace",
    "ReceiveCoilActiveElements": "HE1-4",
    "ReceiveCoilName": "HeadNeck_20",
    "ReconMatrixPE": 64,
    "RepetitionTime": 2.34,
    "SAR": 0.163506,
    "ScanOptions": "FS",
    "ScanningSequence": "EP",
    "SequenceName": "_epfid2d1_64",
    "SequenceVariant": "SK",
    "SeriesDescription": "fMRI_3",
    "SeriesNumber": 8,
    "ShimSetting": [
      -1628,
      -3648,
      -4388,
      466,
      340,
      100,
      264,
      -161
    ],
    "SliceThickness": 3,
    "SliceTiming": [
      2.25,
      2.1825,
      2.115,
      2.045,
      1.9775,
      1.91,
      1.8425,
      1.7725,
      1.705,
      1.6375,
      1.5675,
      1.5,
      1.4325,
      1.3625,
      1.295,
      1.2275,
      1.16,
      1.09,
      1.0225,
      0.955,
      0.885,
      0.8175,
      0.75,
      0.6825,
      0.6125,
      0.545,
      0.4775,
      0.4075,
      0.34,
      0.2725,
      0.2025,
      0.135,
      0.0675,
      0
    ],
    "SoftwareVersions": "syngo_MR_D13",
    "SpacingBetweenSlices": 3.3,
    "StationName": "FBMTMR1",
    "TaskName": "read",
    "TotalReadoutTime": 0.0409508,
    "TxRefAmp": 362.868,
    "dataset": "ds003126",
    "dcmmeta_affine": [
      [
        -2.9929592609405518,
        0.15161660313606262,
        -0.15244819223880768,
        91.36608123779297
      ],
      [
        0.17922331392765045,
        2.9164371490478516,
        -0.7478976845741272,
        -113.6263427734375
      ],
      [
        -0.1003672257065773,
        0.6865907907485962,
        3.210515260696411,
        -38.908103942871094
      ],
      [
        0.0,
        0.0,
        0.0,
        1.0
      ]
    ],
    "dcmmeta_reorient_transform": [
      [
        0.0,
        -1.0,
        0.0,
        63.0
      ],
      [
        1.0,
        0.0,
        0.0,
        0.0
      ],
      [
        0.0,
        0.0,
        1.0,
        0.0
      ],
      [
        0.0,
        0.0,
        0.0,
        1.0
      ]
    ],
    "dcmmeta_shape": [
      64,
      64,
      34,
      123
    ],
    "dcmmeta_slice_dim": 2,
    "dcmmeta_version": 0.6,
    "global": {
      "const": {
        "AcquisitionMatrix": [
          64,
          0,
          0,
          64
        ],
        "AngioFlag": "N",
        "BitsAllocated": 16,
        "BitsStored": 12,
        "BodyPartExamined": "HEAD",
        "Columns": 384,
        "EchoNumbers": 1,
        "EchoTime": 33.0,
        "EchoTrainLength": 64,
        "FlipAngle": 90.0,
        "HighBit": 11,
        "ImageOrientationPatient": [
          0.99765310285762,
          -0.0597411057303,
          -0.0334557415801,
          0.05053886764814,
          0.97214570750494,
          -0.2288635974474
        ],
        "ImagePositionPatient": [
          -604.05007209283,
          -508.06340122336,
          130.26039850833
        ],
        "ImageType": [
          "ORIGINAL",
          "PRIMARY",
          "M",
          "ND",
          "NORM",
          "MOSAIC"
        ],
        "ImagedNucleus": "1H",
        "ImagingFrequency": 123.214235,
        "InPlanePhaseEncodingDirection": "COL",
        "MRAcquisitionType": "2D",
        "MagneticFieldStrength": 3.0,
        "Manufacturer": "SIEMENS",
        "ManufacturerModelName": "Skyra",
        "Modality": "MR",
        "NumberOfAverages": 1.0,
        "NumberOfPhaseEncodingSteps": 64,
        "PercentPhaseFieldOfView": 100.0,
        "PercentSampling": 100.0,
        "PerformedProcedureStepStartTime": "102549.216000",
        "PhotometricInterpretation": "MONOCHROME2",
        "PixelBandwidth": 1700.0,
        "PixelRepresentation": 0,
        "PixelSpacing": [
          3.0,
          3.0
        ],
        "ProtocolName": "fMRI_3",
        "RepetitionTime": 2340.0,
        "Rows": 384,
        "SAR": 0.16350648557902,
        "SamplesPerPixel": 1,
        "ScanOptions": "FS",
        "ScanningSequence": "EP",
        "SequenceName": "*epfid2d1_64",
        "SequenceVariant": "SK",
        "SeriesDescription": "fMRI_3",
        "SeriesNumber": 8,
        "SeriesTime": "104501.294000",
        "SliceLocation": -16.322053281035,
        "SliceThickness": 3.0,
        "SmallestImagePixelValue": 0,
        "SoftwareVersions": "syngo MR D13",
        "SpacingBetweenSlices": 3.3000000256324,
        "SpecificCharacterSet": "ISO_IR 100",
        "StudyID": "1",
        "StudyTime": "102549.169000",
        "TransmitCoilName": "Body",
        "VariableFlipAngleFlag": "N",
        "WindowCenterWidthExplanation": "Algo1",
        "dBdt": 0.0
      },
      "slices": {}
    },
    "modality": "bold",
    "run_id": 3,
    "session_id": "2",
    "subject_id": "047EPKL011047",
    "task_id": "read",
    "time": {
      "samples": {
        "AcquisitionNumber": [
          1,
          2,
          3,
          4,
          5,
          6,
          7,
          8,
          9,
          10,
          11,
          12,
          13,
          14,
          15,
          16,
          17,
          18,
          19,
          20,
          21,
          22,
          23,
          24,
          25,
          26,
          27,
          28,
          29,
          30,
          31,
          32,
          33,
          34,
          35,
          36,
          37,
          38,
          39,
          40,
          41,
          42,
          43,
          44,
          45,
          46,
          47,
          48,
          49,
          50,
          51,
          52,
          53,
          54,
          55,
          56,
          57,
          58,
          59,
          60,
          61,
          62,
          63,
          64,
          65,
          66,
          67,
          68,
          69,
          70,
          71,
          72,
          73,
          74,
          75,
          76,
          77,
          78,
          79,
          80,
          81,
          82,
          83,
          84,
          85,
          86,
          87,
          88,
          89,
          90,
          91,
          92,
          93,
          94,
          95,
          96,
          97,
          98,
          99,
          100,
          101,
          102,
          103,
          104,
          105,
          106,
          107,
          108,
          109,
          110,
          111,
          112,
          113,
          114,
          115,
          116,
          117,
          118,
          119,
          120,
          121,
          122,
          123
        ],
        "AcquisitionTime": [
          "104402.882500",
          "104405.222500",
          "104407.562500",
          "104409.902500",
          "104412.242500",
          "104414.582500",
          "104416.922500",
          "104419.262500",
          "104421.602500",
          "104423.942500",
          "104426.282500",
          "104428.622500",
          "104430.962500",
          "104433.302500",
          "104435.642500",
          "104437.982500",
          "104440.322500",
          "104442.662500",
          "104445.002500",
          "104447.342500",
          "104449.682500",
          "104452.022500",
          "104454.362500",
          "104456.702500",
          "104459.042500",
          "104501.382500",
          "104503.722500",
          "104506.062500",
          "104508.402500",
          "104510.742500",
          "104513.082500",
          "104515.422500",
          "104517.762500",
          "104520.102500",
          "104522.442500",
          "104524.782500",
          "104527.122500",
          "104529.462500",
          "104531.802500",
          "104534.142500",
          "104536.482500",
          "104538.822500",
          "104541.162500",
          "104543.502500",
          "104545.842500",
          "104548.182500",
          "104550.522500",
          "104552.862500",
          "104555.202500",
          "104557.542500",
          "104559.882500",
          "104602.222500",
          "104604.562500",
          "104606.902500",
          "104609.242500",
          "104611.582500",
          "104613.922500",
          "104616.262500",
          "104618.602500",
          "104620.942500",
          "104623.282500",
          "104625.622500",
          "104627.962500",
          "104630.302500",
          "104632.642500",
          "104634.982500",
          "104637.322500",
          "104639.662500",
          "104642.002500",
          "104644.342500",
          "104646.682500",
          "104649.022500",
          "104651.362500",
          "104653.702500",
          "104656.042500",
          "104658.382500",
          "104700.722500",
          "104703.062500",
          "104705.402500",
          "104707.742500",
          "104710.082500",
          "104712.422500",
          "104714.762500",
          "104717.102500",
          "104719.442500",
          "104721.782500",
          "104724.122500",
          "104726.462500",
          "104728.802500",
          "104731.142500",
          "104733.482500",
          "104735.822500",
          "104738.162500",
          "104740.502500",
          "104742.842500",
          "104745.182500",
          "104747.522500",
          "104749.862500",
          "104752.202500",
          "104754.542500",
          "104756.882500",
          "104759.222500",
          "104801.562500",
          "104803.902500",
          "104806.242500",
          "104808.582500",
          "104810.922500",
          "104813.262500",
          "104815.602500",
          "104817.942500",
          "104820.282500",
          "104822.622500",
          "104824.962500",
          "104827.302500",
          "104829.642500",
          "104831.982500",
          "104834.322500",
          "104836.662500",
          "104839.002500",
          "104841.342500",
          "104843.682500",
          "104846.022500",
          "104848.362500"
        ],
        "ContentTime": [
          "104501.299000",
          "104501.304000",
          "104501.306000",
          "104501.309000",
          "104501.311000",
          "104501.314000",
          "104501.317000",
          "104501.319000",
          "104501.322000",
          "104501.324000",
          "104501.327000",
          "104501.329000",
          "104501.332000",
          "104501.335000",
          "104501.337000",
          "104501.340000",
          "104501.343000",
          "104501.345000",
          "104501.348000",
          "104501.351000",
          "104501.353000",
          "104501.356000",
          "104501.358000",
          "104501.361000",
          "104501.364000",
          "104601.292000",
          "104601.296000",
          "104601.298000",
          "104601.301000",
          "104601.304000",
          "104601.307000",
          "104601.310000",
          "104601.312000",
          "104601.321000",
          "104601.324000",
          "104601.326000",
          "104601.329000",
          "104601.332000",
          "104601.335000",
          "104601.337000",
          "104601.340000",
          "104601.343000",
          "104601.345000",
          "104601.348000",
          "104601.351000",
          "104601.353000",
          "104601.356000",
          "104601.359000",
          "104601.361000",
          "104601.364000",
          "104601.367000",
          "104701.292000",
          "104701.295000",
          "104701.298000",
          "104701.301000",
          "104701.309000",
          "104701.311000",
          "104701.314000",
          "104701.316000",
          "104701.319000",
          "104701.322000",
          "104701.325000",
          "104701.327000",
          "104701.330000",
          "104701.333000",
          "104701.335000",
          "104701.338000",
          "104701.341000",
          "104701.343000",
          "104701.346000",
          "104701.349000",
          "104701.351000",
          "104701.354000",
          "104701.357000",
          "104701.360000",
          "104701.363000",
          "104801.292000",
          "104801.295000",
          "104801.298000",
          "104801.301000",
          "104801.304000",
          "104801.307000",
          "104801.310000",
          "104801.312000",
          "104801.315000",
          "104801.318000",
          "104801.321000",
          "104801.323000",
          "104801.326000",
          "104801.329000",
          "104801.332000",
          "104801.334000",
          "104801.337000",
          "104801.340000",
          "104801.342000",
          "104801.345000",
          "104801.348000",
          "104801.351000",
          "104801.353000",
          "104801.356000",
          "104801.359000",
          "104801.362000",
          "104841.293000",
          "104841.297000",
          "104841.299000",
          "104841.302000",
          "104841.311000",
          "104841.314000",
          "104841.317000",
          "104841.319000",
          "104841.322000",
          "104841.325000",
          "104841.328000",
          "104841.331000",
          "104841.334000",
          "104841.336000",
          "104841.339000",
          "104841.342000",
          "104841.344000",
          "104851.364000",
          "104851.367000",
          "104851.376000",
          "104851.379000"
        ],
        "InstanceCreationTime": [
          "104501.299000",
          "104501.304000",
          "104501.306000",
          "104501.309000",
          "104501.311000",
          "104501.314000",
          "104501.317000",
          "104501.319000",
          "104501.322000",
          "104501.324000",
          "104501.327000",
          "104501.329000",
          "104501.332000",
          "104501.335000",
          "104501.337000",
          "104501.340000",
          "104501.343000",
          "104501.345000",
          "104501.348000",
          "104501.351000",
          "104501.353000",
          "104501.356000",
          "104501.358000",
          "104501.361000",
          "104501.364000",
          "104601.292000",
          "104601.296000",
          "104601.298000",
          "104601.301000",
          "104601.304000",
          "104601.307000",
          "104601.310000",
          "104601.312000",
          "104601.321000",
          "104601.324000",
          "104601.326000",
          "104601.329000",
          "104601.332000",
          "104601.335000",
          "104601.337000",
          "104601.340000",
          "104601.343000",
          "104601.345000",
          "104601.348000",
          "104601.351000",
          "104601.353000",
          "104601.356000",
          "104601.359000",
          "104601.361000",
          "104601.364000",
          "104601.367000",
          "104701.292000",
          "104701.295000",
          "104701.298000",
          "104701.301000",
          "104701.309000",
          "104701.311000",
          "104701.314000",
          "104701.316000",
          "104701.319000",
          "104701.322000",
          "104701.325000",
          "104701.327000",
          "104701.330000",
          "104701.333000",
          "104701.335000",
          "104701.338000",
          "104701.341000",
          "104701.343000",
          "104701.346000",
          "104701.349000",
          "104701.351000",
          "104701.354000",
          "104701.357000",
          "104701.360000",
          "104701.363000",
          "104801.292000",
          "104801.295000",
          "104801.298000",
          "104801.301000",
          "104801.304000",
          "104801.307000",
          "104801.310000",
          "104801.312000",
          "104801.315000",
          "104801.318000",
          "104801.321000",
          "104801.323000",
          "104801.326000",
          "104801.329000",
          "104801.332000",
          "104801.334000",
          "104801.337000",
          "104801.340000",
          "104801.342000",
          "104801.345000",
          "104801.348000",
          "104801.351000",
          "104801.353000",
          "104801.356000",
          "104801.359000",
          "104801.362000",
          "104841.293000",
          "104841.297000",
          "104841.299000",
          "104841.302000",
          "104841.311000",
          "104841.314000",
          "104841.317000",
          "104841.319000",
          "104841.322000",
          "104841.325000",
          "104841.328000",
          "104841.331000",
          "104841.334000",
          "104841.336000",
          "104841.339000",
          "104841.342000",
          "104841.344000",
          "104851.364000",
          "104851.367000",
          "104851.376000",
          "104851.379000"
        ],
        "InstanceNumber": [
          1,
          2,
          3,
          4,
          5,
          6,
          7,
          8,
          9,
          10,
          11,
          12,
          13,
          14,
          15,
          16,
          17,
          18,
          19,
          20,
          21,
          22,
          23,
          24,
          25,
          26,
          27,
          28,
          29,
          30,
          31,
          32,
          33,
          34,
          35,
          36,
          37,
          38,
          39,
          40,
          41,
          42,
          43,
          44,
          45,
          46,
          47,
          48,
          49,
          50,
          51,
          52,
          53,
          54,
          55,
          56,
          57,
          58,
          59,
          60,
          61,
          62,
          63,
          64,
          65,
          66,
          67,
          68,
          69,
          70,
          71,
          72,
          73,
          74,
          75,
          76,
          77,
          78,
          79,
          80,
          81,
          82,
          83,
          84,
          85,
          86,
          87,
          88,
          89,
          90,
          91,
          92,
          93,
          94,
          95,
          96,
          97,
          98,
          99,
          100,
          101,
          102,
          103,
          104,
          105,
          106,
          107,
          108,
          109,
          110,
          111,
          112,
          113,
          114,
          115,
          116,
          117,
          118,
          119,
          120,
          121,
          122,
          123
        ],
        "LargestImagePixelValue": [
          1996,
          1923,
          1908,
          2169,
          2333,
          2251,
          2581,
          1888,
          1792,
          2232,
          1834,
          2508,
          1832,
          1830,
          1882,
          2233,
          1782,
          1942,
          2044,
          2344,
          2334,
          1876,
          1838,
          1892,
          2279,
          1926,
          1881,
          1894,
          2265,
          1761,
          1831,
          1922,
          2165,
          2714,
          1913,
          1918,
          2082,
          2167,
          1937,
          1987,
          1947,
          1911,
          2409,
          1797,
          1954,
          2204,
          1694,
          1762,
          2303,
          2454,
          2017,
          1863,
          2307,
          2000,
          1905,
          2620,
          1871,
          1778,
          2460,
          1940,
          1820,
          1847,
          2434,
          1848,
          1790,
          2115,
          2190,
          2782,
          2099,
          1800,
          2130,
          2273,
          2682,
          1928,
          1963,
          1848,
          1836,
          2181,
          2009,
          2769,
          1832,
          1869,
          2622,
          1900,
          1817,
          1878,
          2359,
          1898,
          1900,
          2577,
          2085,
          2124,
          1862,
          1892,
          2223,
          1817,
          2120,
          1954,
          1797,
          2197,
          2037,
          1897,
          1903,
          2005,
          2290,
          2073,
          1906,
          1919,
          2282,
          1791,
          1750,
          2382,
          2120,
          1952,
          2128,
          1880,
          1788,
          2177,
          1947,
          1936,
          1961,
          2367,
          1816
        ],
        "WindowCenter": [
          806.0,
          805.0,
          806.0,
          807.0,
          809.0,
          808.0,
          807.0,
          803.0,
          803.0,
          807.0,
          805.0,
          806.0,
          805.0,
          806.0,
          807.0,
          807.0,
          805.0,
          806.0,
          810.0,
          807.0,
          804.0,
          805.0,
          803.0,
          809.0,
          805.0,
          804.0,
          803.0,
          807.0,
          805.0,
          803.0,
          804.0,
          810.0,
          809.0,
          806.0,
          806.0,
          806.0,
          808.0,
          809.0,
          806.0,
          807.0,
          807.0,
          806.0,
          806.0,
          808.0,
          808.0,
          809.0,
          807.0,
          807.0,
          810.0,
          807.0,
          805.0,
          805.0,
          808.0,
          809.0,
          805.0,
          808.0,
          807.0,
          807.0,
          808.0,
          808.0,
          806.0,
          807.0,
          808.0,
          806.0,
          806.0,
          809.0,
          809.0,
          808.0,
          808.0,
          807.0,
          809.0,
          807.0,
          807.0,
          807.0,
          807.0,
          808.0,
          806.0,
          808.0,
          805.0,
          806.0,
          809.0,
          808.0,
          808.0,
          807.0,
          806.0,
          810.0,
          809.0,
          808.0,
          807.0,
          811.0,
          813.0,
          809.0,
          808.0,
          809.0,
          809.0,
          808.0,
          808.0,
          808.0,
          807.0,
          808.0,
          807.0,
          806.0,
          807.0,
          808.0,
          808.0,
          809.0,
          807.0,
          812.0,
          807.0,
          807.0,
          806.0,
          811.0,
          810.0,
          807.0,
          808.0,
          809.0,
          805.0,
          809.0,
          813.0,
          809.0,
          809.0,
          809.0,
          804.0
        ],
        "WindowWidth": [
          1720.0,
          1716.0,
          1719.0,
          1723.0,
          1727.0,
          1725.0,
          1723.0,
          1711.0,
          1713.0,
          1722.0,
          1714.0,
          1724.0,
          1718.0,
          1719.0,
          1722.0,
          1724.0,
          1716.0,
          1721.0,
          1727.0,
          1722.0,
          1717.0,
          1717.0,
          1711.0,
          1727.0,
          1721.0,
          1713.0,
          1712.0,
          1725.0,
          1718.0,
          1710.0,
          1718.0,
          1730.0,
          1727.0,
          1724.0,
          1718.0,
          1720.0,
          1728.0,
          1727.0,
          1721.0,
          1723.0,
          1721.0,
          1721.0,
          1724.0,
          1724.0,
          1724.0,
          1730.0,
          1721.0,
          1723.0,
          1730.0,
          1724.0,
          1718.0,
          1716.0,
          1727.0,
          1725.0,
          1715.0,
          1729.0,
          1722.0,
          1723.0,
          1729.0,
          1723.0,
          1719.0,
          1722.0,
          1727.0,
          1718.0,
          1721.0,
          1730.0,
          1727.0,
          1728.0,
          1725.0,
          1720.0,
          1728.0,
          1721.0,
          1723.0,
          1722.0,
          1722.0,
          1725.0,
          1720.0,
          1724.0,
          1718.0,
          1724.0,
          1725.0,
          1725.0,
          1728.0,
          1722.0,
          1718.0,
          1730.0,
          1732.0,
          1726.0,
          1724.0,
          1736.0,
          1736.0,
          1726.0,
          1725.0,
          1728.0,
          1729.0,
          1725.0,
          1726.0,
          1724.0,
          1722.0,
          1725.0,
          1723.0,
          1717.0,
          1725.0,
          1725.0,
          1725.0,
          1727.0,
          1722.0,
          1736.0,
          1727.0,
          1720.0,
          1718.0,
          1737.0,
          1729.0,
          1723.0,
          1725.0,
          1725.0,
          1717.0,
          1732.0,
          1738.0,
          1730.0,
          1727.0,
          1726.0,
          1714.0
        ]
      },
      "slices": {}
    }
  },
  "dummy_trs": 0,
  "dvars_nstd": 38.52216283606558,
  "dvars_std": 1.3085069362295079,
  "dvars_vstd": 1.0586276646721309,
  "efc": 0.5730362171441382,
  "fber": 1384.8638916015625,
  "fd_mean": 0.4984013048134782,
  "fd_num": 107,
  "fd_perc": 86.99186991869918,
  "fwhm_avg": 1.6830911185825235,
  "fwhm_x": 1.5792333333333335,
  "fwhm_y": 1.91884,
  "fwhm_z": 1.5512000224142368,
  "gcor": 0.0367031,
  "gsr_x": -0.0037682075053453445,
  "gsr_y": 0.04200046509504318,
  "provenance": {
    "md5sum": "6ebd2815d07e223ad02ce068efb229f8",
    "settings": {
      "fd_thres": 0.2,
      "testing": false
    },
    "software": "mriqc",
    "version": "22.0.1",
    "webapi_port": null,
    "webapi_url": "https://mriqc.nimh.nih.gov/api/v1"
  },
  "size_t": 123,
  "size_x": 64,
  "size_y": 64,
  "size_z": 34,
  "snr": 6.880874743551448,
  "spacing_tr": 2.3399999141693115,
  "spacing_x": 3.0,
  "spacing_y": 3.0,
  "spacing_z": 3.299999952316284,
  "summary_bg_k": 31.605142925674095,
  "summary_bg_mad": 11.619744446486125,
  "summary_bg_mean": 50.85061264038086,
  "summary_bg_median": 25.105690002441406,
  "summary_bg_n": 74376.0,
  "summary_bg_p05": 13.699186325073242,
  "summary_bg_p95": 171.1300811767578,
  "summary_bg_stdv": 84.16065979003906,
  "summary_fg_k": 3.604867327633534,
  "summary_fg_mad": 129.38410033117464,
  "summary_fg_mean": 957.2539672851562,
  "summary_fg_median": 957.5527954101562,
  "summary_fg_n": 31992.0,
  "summary_fg_p05": 755.6512023925782,
  "summary_fg_p95": 1165.3609069824215,
  "summary_fg_stdv": 139.15931701660156,
  "tsnr": 55.04199991375208
}