{
  "aor": 0.0050550387596899225,
  "aqi": 0.01416919527131783,
  "bids_meta": {
    "AcquisitionMatrixPE": 64,
    "AcquisitionNumber": 1,
    "AcquisitionTime": "10:38:6.825000",
    "BandwidthPerPixelPhaseEncode": 24.038,
    "BaseResolution": 64,
    "BodyPartExamined": "HEAD",
    "ConsistencyInfo": "N4_VD13A_LATEST_20120616",
    "ConversionSoftware": "dcm2niix",
    "ConversionSoftwareVersion": "v1.0.20181125  GCC6.3.0",
    "DerivedVendorReportedEchoSpacing": 0.000650012,
    "DeviceSerialNumber": "45250",
    "DwellTime": 4.6e-06,
    "EchoTime": 0.033,
    "EchoTrainLength": 64,
    "EffectiveEchoSpacing": 0.000650012,
    "FlipAngle": 90,
    "ImageOrientationPatientDICOM": [
      0.997653,
      -0.0597411,
      -0.0334557,
      0.0505389,
      0.972146,
      -0.228864
    ],
    "ImageType": [
      "ORIGINAL",
      "PRIMARY",
      "M",
      "ND",
      "NORM",
      "MOSAIC"
    ],
    "ImagingFrequency": 123.214,
    "InPlanePhaseEncodingDirectionDICOM": "COL",
    "InstitutionAddress": "Kopernikusstr._26_Graz_Graz_AT_8010",
    "InstitutionName": "KFU",
    "InstitutionalDepartmentName": "Department",
    "MRAcquisitionType": "2D",
    "MagneticFieldStrength": 3,
    "Manufacturer": "Siemens",
    "ManufacturersModelName": "Skyra",
    "Modality": "MR",
    "PartialFourier": 1,
    "PatientPosition": "HFS",
    "PercentPhaseFOV": 100,
    "PhaseEncodingDirection": "j-",
    "PhaseEncodingSteps": 64,
    "PhaseResolution": 1,
    "PixelBandwidth": 1700,
    "ProcedureStepDescription": "KFU_Entw-Psy",
    "ProtocolName": "fMRI_2",
    "PulseSequenceDetails": "%SiemensSeq%_ep2d_pace",
    "ReceiveCoilActiveElements": "HE1-4",
    "ReceiveCoilName": "HeadNeck_20",
    "ReconMatrixPE": 64,
    "RepetitionTime": 2.34,
    "SAR": 0.163506,
    "ScanOptions": "FS",
    "ScanningSequence": "EP",
    "SequenceName": "_epfid2d1_64",
    "SequenceVariant": "SK",
    "SeriesDescription": "fMRI_2",
    "SeriesNumber": 5,
    "ShimSetting": [
      -1628,
      -3648,
      -4388,
      466,
      340,
      100,
      264,
      -161
    ],
    "SliceThickness": 3,
    "SliceTiming": [
      2.2525,
      2.185,
      2.115,
      2.0475,
      1.98,
      1.9125,
      1.8425,
      1.775,
      1.7075,
      1.6375,
      1.57,
      1.5025,
      1.435,
      1.365,
      1.2975,
      1.23,
      1.16,
      1.0925,
      1.025,
      0.9575,
      0.8875,
      0.82,
      0.7525,
      0.6825,
      0.615,
      0.5475,
      0.4775,
      0.41,
      0.3425,
      0.275,
      0.205,
      0.1375,
      0.07,
      0
    ],
    "SoftwareVersions": "syngo_MR_D13",
    "SpacingBetweenSlices": 3.3,
    "StationName": "FBMTMR1",
    "TaskName": "read",
    "TotalReadoutTime": 0.0409508,
    "TxRefAmp": 362.868,
    "dataset": "ds003126",
    "dcmmeta_affine": [
      [
        -2.9929592609405518,
        0.15161660313606262,
        -0.15244819223880768,
        91.36608123779297
      ],
      [
        0.17922331392765045,
        2.9164371490478516,
        -0.7478976845741272,
        -113.6263427734375
      ],
      [
        -0.1003672257065773,
        0.6865907907485962,
        3.210515260696411,
        -38.908103942871094
      ],
      [
        0.0,
        0.0,
        0.0,
        1.0
      ]
    ],
    "dcmmeta_reorient_transform": [
      [
        0.0,
        -1.0,
        0.0,
        63.0
      ],
      [
        1.0,
        0.0,
        0.0,
        0.0
      ],
      [
        0.0,
        0.0,
        1.0,
        0.0
      ],
      [
        0.0,
        0.0,
        0.0,
        1.0
      ]
    ],
    "dcmmeta_shape": [
      64,
      64,
      34,
      129
    ],
    "dcmmeta_slice_dim": 2,
    "dcmmeta_version": 0.6,
    "global": {
      "const": {
        "AcquisitionMatrix": [
          64,
          0,
          0,
          64
        ],
        "AngioFlag": "N",
        "BitsAllocated": 16,
        "BitsStored": 12,
        "BodyPartExamined": "HEAD",
        "Columns": 384,
        "EchoNumbers": 1,
        "EchoTime": 33.0,
        "EchoTrainLength": 64,
        "FlipAngle": 90.0,
        "HighBit": 11,
        "ImageOrientationPatient": [
          0.99765310285762,
          -0.0597411057303,
          -0.0334557415801,
          0.05053886764814,
          0.97214570750494,
          -0.2288635974474
        ],
        "ImagePositionPatient": [
          -604.05007209283,
          -508.06340122336,
          130.26039850833
        ],
        "ImageType": [
          "ORIGINAL",
          "PRIMARY",
          "M",
          "ND",
          "NORM",
          "MOSAIC"
        ],
        "ImagedNucleus": "1H",
        "ImagingFrequency": 123.214227,
        "InPlanePhaseEncodingDirection": "COL",
        "MRAcquisitionType": "2D",
        "MagneticFieldStrength": 3.0,
        "Manufacturer": "SIEMENS",
        "ManufacturerModelName": "Skyra",
        "Modality": "MR",
        "NumberOfAverages": 1.0,
        "NumberOfPhaseEncodingSteps": 64,
        "PercentPhaseFieldOfView": 100.0,
        "PercentSampling": 100.0,
        "PerformedProcedureStepStartTime": "102549.216000",
        "PhotometricInterpretation": "MONOCHROME2",
        "PixelBandwidth": 1700.0,
        "PixelRepresentation": 0,
        "PixelSpacing": [
          3.0,
          3.0
        ],
        "ProtocolName": "fMRI_2",
        "RepetitionTime": 2340.0,
        "Rows": 384,
        "SAR": 0.16350648557902,
        "SamplesPerPixel": 1,
        "ScanOptions": "FS",
        "ScanningSequence": "EP",
        "SequenceName": "*epfid2d1_64",
        "SequenceVariant": "SK",
        "SeriesDescription": "fMRI_2",
        "SeriesNumber": 5,
        "SeriesTime": "103840.707000",
        "SliceLocation": -16.322053281035,
        "SliceThickness": 3.0,
        "SmallestImagePixelValue": 0,
        "SoftwareVersions": "syngo MR D13",
        "SpacingBetweenSlices": 3.3000000256324,
        "SpecificCharacterSet": "ISO_IR 100",
        "StudyID": "1",
        "StudyTime": "102549.169000",
        "TransmitCoilName": "Body",
        "VariableFlipAngleFlag": "N",
        "WindowCenterWidthExplanation": "Algo1",
        "dBdt": 0.0
      },
      "slices": {}
    },
    "modality": "bold",
    "run_id": 2,
    "session_id": "2",
    "subject_id": "047EPKL011047",
    "task_id": "read",
    "time": {
      "samples": {
        "AcquisitionNumber": [
          1,
          2,
          3,
          4,
          5,
          6,
          7,
          8,
          9,
          10,
          11,
          12,
          13,
          14,
          15,
          16,
          17,
          18,
          19,
          20,
          21,
          22,
          23,
          24,
          25,
          26,
          27,
          28,
          29,
          30,
          31,
          32,
          33,
          34,
          35,
          36,
          37,
          38,
          39,
          40,
          41,
          42,
          43,
          44,
          45,
          46,
          47,
          48,
          49,
          50,
          51,
          52,
          53,
          54,
          55,
          56,
          57,
          58,
          59,
          60,
          61,
          62,
          63,
          64,
          65,
          66,
          67,
          68,
          69,
          70,
          71,
          72,
          73,
          74,
          75,
          76,
          77,
          78,
          79,
          80,
          81,
          82,
          83,
          84,
          85,
          86,
          87,
          88,
          89,
          90,
          91,
          92,
          93,
          94,
          95,
          96,
          97,
          98,
          99,
          100,
          101,
          102,
          103,
          104,
          105,
          106,
          107,
          108,
          109,
          110,
          111,
          112,
          113,
          114,
          115,
          116,
          117,
          118,
          119,
          120,
          121,
          122,
          123,
          124,
          125,
          126,
          127,
          128,
          129
        ],
        "AcquisitionTime": [
          "103806.825000",
          "103809.165000",
          "103811.505000",
          "103813.845000",
          "103816.185000",
          "103818.525000",
          "103820.865000",
          "103823.205000",
          "103825.545000",
          "103827.885000",
          "103830.225000",
          "103832.565000",
          "103834.905000",
          "103837.245000",
          "103839.585000",
          "103841.925000",
          "103844.265000",
          "103846.605000",
          "103848.945000",
          "103851.285000",
          "103853.625000",
          "103855.965000",
          "103858.305000",
          "103900.645000",
          "103902.985000",
          "103905.325000",
          "103907.665000",
          "103910.005000",
          "103912.345000",
          "103914.685000",
          "103917.025000",
          "103919.365000",
          "103921.705000",
          "103924.045000",
          "103926.385000",
          "103928.725000",
          "103931.065000",
          "103933.405000",
          "103935.745000",
          "103938.085000",
          "103940.425000",
          "103942.765000",
          "103945.105000",
          "103947.445000",
          "103949.785000",
          "103952.125000",
          "103954.465000",
          "103956.805000",
          "103959.145000",
          "104001.485000",
          "104003.825000",
          "104006.165000",
          "104008.505000",
          "104010.845000",
          "104013.185000",
          "104015.525000",
          "104017.865000",
          "104020.205000",
          "104022.545000",
          "104024.885000",
          "104027.225000",
          "104029.565000",
          "104031.905000",
          "104034.245000",
          "104036.585000",
          "104038.925000",
          "104041.265000",
          "104043.605000",
          "104045.945000",
          "104048.285000",
          "104050.625000",
          "104052.965000",
          "104055.305000",
          "104057.645000",
          "104059.985000",
          "104102.325000",
          "104104.665000",
          "104107.005000",
          "104109.345000",
          "104111.685000",
          "104114.025000",
          "104116.365000",
          "104118.705000",
          "104121.045000",
          "104123.385000",
          "104125.725000",
          "104128.065000",
          "104130.405000",
          "104132.745000",
          "104135.085000",
          "104137.425000",
          "104139.765000",
          "104142.105000",
          "104144.445000",
          "104146.785000",
          "104149.125000",
          "104151.465000",
          "104153.805000",
          "104156.145000",
          "104158.485000",
          "104200.825000",
          "104203.165000",
          "104205.505000",
          "104207.845000",
          "104210.185000",
          "104212.525000",
          "104214.865000",
          "104217.205000",
          "104219.545000",
          "104221.885000",
          "104224.225000",
          "104226.565000",
          "104228.905000",
          "104231.245000",
          "104233.585000",
          "104235.925000",
          "104238.265000",
          "104240.605000",
          "104242.945000",
          "104245.285000",
          "104247.625000",
          "104249.965000",
          "104252.305000",
          "104254.645000",
          "104256.985000",
          "104259.325000",
          "104301.665000",
          "104304.005000",
          "104306.345000"
        ],
        "ContentTime": [
          "103840.712000",
          "103840.715000",
          "103840.723000",
          "103840.726000",
          "103840.728000",
          "103840.731000",
          "103840.734000",
          "103840.736000",
          "103840.739000",
          "103840.742000",
          "103840.744000",
          "103840.747000",
          "103840.750000",
          "103840.752000",
          "103840.755000",
          "103940.706000",
          "103940.709000",
          "103940.712000",
          "103940.716000",
          "103940.718000",
          "103940.721000",
          "103940.724000",
          "103940.726000",
          "103940.729000",
          "103940.732000",
          "103940.734000",
          "103940.737000",
          "103940.740000",
          "103940.742000",
          "103940.745000",
          "103940.747000",
          "103940.750000",
          "103940.752000",
          "103940.755000",
          "103940.758000",
          "103940.760000",
          "103940.763000",
          "103940.765000",
          "103940.768000",
          "103940.770000",
          "103940.773000",
          "104040.706000",
          "104040.709000",
          "104040.712000",
          "104040.715000",
          "104040.717000",
          "104040.720000",
          "104040.722000",
          "104040.725000",
          "104040.727000",
          "104040.730000",
          "104040.733000",
          "104040.735000",
          "104040.738000",
          "104040.740000",
          "104040.743000",
          "104040.758000",
          "104040.761000",
          "104040.764000",
          "104040.766000",
          "104040.769000",
          "104040.771000",
          "104040.774000",
          "104040.777000",
          "104040.779000",
          "104040.782000",
          "104140.707000",
          "104140.710000",
          "104140.713000",
          "104140.716000",
          "104140.718000",
          "104140.721000",
          "104140.724000",
          "104140.726000",
          "104140.729000",
          "104140.732000",
          "104140.735000",
          "104140.737000",
          "104140.740000",
          "104140.742000",
          "104140.745000",
          "104140.748000",
          "104140.750000",
          "104140.753000",
          "104140.756000",
          "104140.758000",
          "104140.761000",
          "104140.764000",
          "104140.766000",
          "104140.769000",
          "104140.772000",
          "104140.774000",
          "104240.706000",
          "104240.710000",
          "104240.712000",
          "104240.715000",
          "104240.717000",
          "104240.720000",
          "104240.723000",
          "104240.726000",
          "104240.728000",
          "104240.731000",
          "104240.734000",
          "104240.736000",
          "104240.739000",
          "104240.743000",
          "104240.746000",
          "104240.749000",
          "104240.752000",
          "104240.755000",
          "104240.758000",
          "104240.761000",
          "104240.763000",
          "104240.766000",
          "104240.769000",
          "104240.772000",
          "104240.775000",
          "104308.444000",
          "104308.448000",
          "104308.452000",
          "104308.456000",
          "104308.460000",
          "104308.463000",
          "104308.465000",
          "104308.468000",
          "104308.471000",
          "104308.474000",
          "104308.478000",
          "104308.483000"
        ],
        "InstanceCreationTime": [
          "103840.712000",
          "103840.715000",
          "103840.723000",
          "103840.726000",
          "103840.728000",
          "103840.731000",
          "103840.734000",
          "103840.736000",
          "103840.739000",
          "103840.742000",
          "103840.744000",
          "103840.747000",
          "103840.750000",
          "103840.752000",
          "103840.755000",
          "103940.706000",
          "103940.709000",
          "103940.712000",
          "103940.716000",
          "103940.718000",
          "103940.721000",
          "103940.724000",
          "103940.726000",
          "103940.729000",
          "103940.732000",
          "103940.734000",
          "103940.737000",
          "103940.740000",
          "103940.742000",
          "103940.745000",
          "103940.747000",
          "103940.750000",
          "103940.752000",
          "103940.755000",
          "103940.758000",
          "103940.760000",
          "103940.763000",
          "103940.765000",
          "103940.768000",
          "103940.770000",
          "103940.773000",
          "104040.706000",
          "104040.709000",
          "104040.712000",
          "104040.715000",
          "104040.717000",
          "104040.720000",
          "104040.722000",
          "104040.725000",
          "104040.727000",
          "104040.730000",
          "104040.733000",
          "104040.735000",
          "104040.738000",
          "104040.740000",
          "104040.743000",
          "104040.758000",
          "104040.761000",
          "104040.764000",
          "104040.766000",
          "104040.769000",
          "104040.771000",
          "104040.774000",
          "104040.777000",
          "104040.779000",
          "104040.782000",
          "104140.707000",
          "104140.710000",
          "104140.713000",
          "104140.716000",
          "104140.718000",
          "104140.721000",
          "104140.724000",
          "104140.726000",
          "104140.729000",
          "104140.732000",
          "104140.735000",
          "104140.737000",
          "104140.740000",
          "104140.742000",
          "104140.745000",
          "104140.748000",
          "104140.750000",
          "104140.753000",
          "104140.756000",
          "104140.758000",
          "104140.761000",
          "104140.764000",
          "104140.766000",
          "104140.769000",
          "104140.772000",
          "104140.774000",
          "104240.706000",
          "104240.710000",
          "104240.712000",
          "104240.715000",
          "104240.717000",
          "104240.720000",
          "104240.723000",
          "104240.726000",
          "104240.728000",
          "104240.731000",
          "104240.734000",
          "104240.736000",
          "104240.739000",
          "104240.743000",
          "104240.746000",
          "104240.749000",
          "104240.752000",
          "104240.755000",
          "104240.758000",
          "104240.761000",
          "104240.763000",
          "104240.766000",
          "104240.769000",
          "104240.772000",
          "104240.775000",
          "104308.444000",
          "104308.448000",
          "104308.452000",
          "104308.456000",
          "104308.460000",
          "104308.463000",
          "104308.465000",
          "104308.468000",
          "104308.471000",
          "104308.474000",
          "104308.478000",
          "104308.483000"
        ],
        "InstanceNumber": [
          1,
          2,
          3,
          4,
          5,
          6,
          7,
          8,
          9,
          10,
          11,
          12,
          13,
          14,
          15,
          16,
          17,
          18,
          19,
          20,
          21,
          22,
          23,
          24,
          25,
          26,
          27,
          28,
          29,
          30,
          31,
          32,
          33,
          34,
          35,
          36,
          37,
          38,
          39,
          40,
          41,
          42,
          43,
          44,
          45,
          46,
          47,
          48,
          49,
          50,
          51,
          52,
          53,
          54,
          55,
          56,
          57,
          58,
          59,
          60,
          61,
          62,
          63,
          64,
          65,
          66,
          67,
          68,
          69,
          70,
          71,
          72,
          73,
          74,
          75,
          76,
          77,
          78,
          79,
          80,
          81,
          82,
          83,
          84,
          85,
          86,
          87,
          88,
          89,
          90,
          91,
          92,
          93,
          94,
          95,
          96,
          97,
          98,
          99,
          100,
          101,
          102,
          103,
          104,
          105,
          106,
          107,
          108,
          109,
          110,
          111,
          112,
          113,
          114,
          115,
          116,
          117,
          118,
          119,
          120,
          121,
          122,
          123,
          124,
          125,
          126,
          127,
          128,
          129
        ],
        "LargestImagePixelValue": [
          1955,
          1879,
          2197,
          2407,
          2341,
          2061,
          1996,
          1855,
          1873,
          2022,
          1955,
          2007,
          2087,
          2221,
          2077,
          1897,
          2037,
          1979,
          1923,
          2208,
          2027,
          1976,
          2007,
          2028,
          2016,
          2060,
          1984,
          2169,
          2097,
          2041,
          1943,
          1864,
          2058,
          2372,
          1906,
          1900,
          2448,
          1897,
          1921,
          2143,
          1992,
          1870,
          2241,
          1924,
          2035,
          1963,
          1957,
          1977,
          2092,
          2007,
          1852,
          2197,
          1847,
          2017,
          1811,
          1885,
          2096,
          1950,
          1872,
          2551,
          1937,
          1762,
          1778,
          1758,
          1796,
          1764,
          2213,
          2010,
          2025,
          2398,
          1977,
          1995,
          2051,
          2021,
          1990,
          2191,
          1874,
          1732,
          2100,
          2135,
          2213,
          1895,
          2015,
          1775,
          1885,
          2379,
          1772,
          1879,
          2052,
          2087,
          1888,
          1880,
          1872,
          1805,
          1995,
          1908,
          1768,
          1985,
          2013,
          2043,
          2056,
          2004,
          2039,
          2214,
          1914,
          2156,
          2026,
          2002,
          2167,
          2006,
          1968,
          2006,
          2024,
          2084,
          1890,
          1852,
          1927,
          1930,
          2202,
          2025,
          1968,
          1972,
          2261,
          1973,
          1791,
          1902,
          1856,
          1854,
          1782
        ],
        "WindowCenter": [
          808.0,
          808.0,
          808.0,
          805.0,
          805.0,
          802.0,
          802.0,
          804.0,
          805.0,
          806.0,
          807.0,
          807.0,
          807.0,
          806.0,
          806.0,
          807.0,
          806.0,
          808.0,
          807.0,
          808.0,
          804.0,
          807.0,
          807.0,
          807.0,
          807.0,
          804.0,
          804.0,
          807.0,
          804.0,
          806.0,
          806.0,
          807.0,
          807.0,
          807.0,
          802.0,
          809.0,
          807.0,
          805.0,
          804.0,
          807.0,
          808.0,
          806.0,
          806.0,
          805.0,
          804.0,
          806.0,
          806.0,
          808.0,
          807.0,
          804.0,
          807.0,
          809.0,
          805.0,
          807.0,
          808.0,
          808.0,
          808.0,
          807.0,
          806.0,
          807.0,
          805.0,
          804.0,
          806.0,
          808.0,
          807.0,
          809.0,
          810.0,
          808.0,
          809.0,
          811.0,
          809.0,
          805.0,
          807.0,
          806.0,
          807.0,
          808.0,
          807.0,
          806.0,
          811.0,
          810.0,
          806.0,
          804.0,
          806.0,
          808.0,
          808.0,
          808.0,
          807.0,
          812.0,
          810.0,
          808.0,
          807.0,
          809.0,
          809.0,
          810.0,
          810.0,
          808.0,
          808.0,
          811.0,
          810.0,
          810.0,
          809.0,
          810.0,
          809.0,
          812.0,
          810.0,
          809.0,
          809.0,
          807.0,
          809.0,
          808.0,
          809.0,
          810.0,
          809.0,
          807.0,
          810.0,
          809.0,
          809.0,
          810.0,
          810.0,
          809.0,
          806.0,
          808.0,
          807.0,
          808.0,
          808.0,
          810.0,
          808.0,
          806.0,
          805.0
        ],
        "WindowWidth": [
          1726.0,
          1726.0,
          1727.0,
          1718.0,
          1718.0,
          1711.0,
          1711.0,
          1718.0,
          1718.0,
          1721.0,
          1723.0,
          1724.0,
          1725.0,
          1723.0,
          1720.0,
          1725.0,
          1723.0,
          1726.0,
          1723.0,
          1726.0,
          1718.0,
          1723.0,
          1723.0,
          1725.0,
          1723.0,
          1717.0,
          1718.0,
          1724.0,
          1716.0,
          1723.0,
          1721.0,
          1724.0,
          1725.0,
          1725.0,
          1710.0,
          1729.0,
          1726.0,
          1717.0,
          1715.0,
          1726.0,
          1728.0,
          1722.0,
          1723.0,
          1719.0,
          1717.0,
          1722.0,
          1722.0,
          1726.0,
          1724.0,
          1716.0,
          1722.0,
          1729.0,
          1717.0,
          1727.0,
          1727.0,
          1725.0,
          1727.0,
          1723.0,
          1722.0,
          1727.0,
          1718.0,
          1715.0,
          1721.0,
          1725.0,
          1723.0,
          1731.0,
          1733.0,
          1726.0,
          1731.0,
          1736.0,
          1727.0,
          1718.0,
          1724.0,
          1722.0,
          1724.0,
          1727.0,
          1724.0,
          1723.0,
          1736.0,
          1730.0,
          1722.0,
          1715.0,
          1721.0,
          1725.0,
          1726.0,
          1730.0,
          1723.0,
          1740.0,
          1734.0,
          1725.0,
          1724.0,
          1731.0,
          1729.0,
          1732.0,
          1733.0,
          1727.0,
          1728.0,
          1734.0,
          1732.0,
          1732.0,
          1732.0,
          1731.0,
          1731.0,
          1738.0,
          1731.0,
          1733.0,
          1730.0,
          1726.0,
          1731.0,
          1726.0,
          1729.0,
          1732.0,
          1728.0,
          1727.0,
          1733.0,
          1730.0,
          1732.0,
          1731.0,
          1733.0,
          1727.0,
          1723.0,
          1727.0,
          1728.0,
          1726.0,
          1729.0,
          1732.0,
          1727.0,
          1720.0,
          1721.0
        ]
      },
      "slices": {}
    }
  },
  "dummy_trs": 0,
  "dvars_nstd": 38.550002351328125,
  "dvars_std": 1.2734632685937495,
  "dvars_vstd": 1.045166514921875,
  "efc": 0.5712346590393532,
  "fber": 1413.9317626953125,
  "fd_mean": 0.5748978279139344,
  "fd_num": 116,
  "fd_perc": 89.92248062015504,
  "fwhm_avg": 1.6931582904176274,
  "fwhm_x": 1.5879166666666666,
  "fwhm_y": 1.9158733333333335,
  "fwhm_z": 1.575684871252882,
  "gcor": 0.0474391,
  "gsr_x": -0.001975393621250987,
  "gsr_y": 0.0414617657661438,
  "provenance": {
    "md5sum": "a15ba28e972fae236912eb94b260701b",
    "settings": {
      "fd_thres": 0.2,
      "testing": false
    },
    "software": "mriqc",
    "version": "22.0.1",
    "webapi_port": null,
    "webapi_url": "https://mriqc.nimh.nih.gov/api/v1"
  },
  "size_t": 129,
  "size_x": 64,
  "size_y": 64,
  "size_z": 34,
  "snr": 6.98652695999278,
  "spacing_tr": 2.3399999141693115,
  "spacing_x": 3.0,
  "spacing_y": 3.0,
  "spacing_z": 3.299999952316284,
  "summary_bg_k": 33.73752142208283,
  "summary_bg_mad": 11.355126554795145,
  "summary_bg_mean": 49.77489471435547,
  "summary_bg_median": 24.88372039794922,
  "summary_bg_n": 74425.0,
  "summary_bg_p05": 13.666666984558105,
  "summary_bg_p95": 167.00620117187503,
  "summary_bg_stdv": 82.41279602050781,
  "summary_fg_k": 2.8477476026342083,
  "summary_fg_mad": 131.2447281092388,
  "summary_fg_mean": 961.0751953125,
  "summary_fg_median": 959.5115966796875,
  "summary_fg_n": 31862.0,
  "summary_fg_p05": 757.50888671875,
  "summary_fg_p95": 1169.6348449707032,
  "summary_fg_stdv": 137.33526611328125,
  "tsnr": 53.18410614738241
}