{
  "aor": 0.009977165354330709,
  "aqi": 0.023220434488188973,
  "bids_meta": {
    "AcquisitionMatrixPE": 64,
    "AcquisitionNumber": 1,
    "AcquisitionTime": "09:34:21.160000",
    "BandwidthPerPixelPhaseEncode": 24.038,
    "BaseResolution": 64,
    "BodyPartExamined": "HEAD",
    "ConsistencyInfo": "N4_VD13A_LATEST_20120616",
    "ConversionSoftware": "dcm2niix",
    "ConversionSoftwareVersion": "v1.0.20181125  GCC6.3.0",
    "DerivedVendorReportedEchoSpacing": 0.000650012,
    "DeviceSerialNumber": "45250",
    "DwellTime": 4.6e-06,
    "EchoTime": 0.033,
    "EchoTrainLength": 64,
    "EffectiveEchoSpacing": 0.000650012,
    "FlipAngle": 90,
    "ImageOrientationPatientDICOM": [
      0.999187,
      -0.0228109,
      -0.0332488,
      0.0174409,
      0.987967,
      -0.153681
    ],
    "ImageType": [
      "ORIGINAL",
      "PRIMARY",
      "M",
      "ND",
      "NORM",
      "MOSAIC"
    ],
    "ImagingFrequency": 123.22,
    "InPlanePhaseEncodingDirectionDICOM": "COL",
    "InstitutionAddress": "Kopernikusstr._26_Graz_Graz_AT_8010",
    "InstitutionName": "KFU",
    "InstitutionalDepartmentName": "Department",
    "MRAcquisitionType": "2D",
    "MagneticFieldStrength": 3,
    "Manufacturer": "Siemens",
    "ManufacturersModelName": "Skyra",
    "Modality": "MR",
    "PartialFourier": 1,
    "PatientPosition": "HFS",
    "PercentPhaseFOV": 100,
    "PhaseEncodingDirection": "j-",
    "PhaseEncodingSteps": 64,
    "PhaseResolution": 1,
    "PixelBandwidth": 1700,
    "ProcedureStepDescription": "KFU_Entw-Psy",
    "ProtocolName": "fMRI_2",
    "PulseSequenceDetails": "%SiemensSeq%_ep2d_pace",
    "ReceiveCoilActiveElements": "HE1-4",
    "ReceiveCoilName": "HeadNeck_20",
    "ReconMatrixPE": 64,
    "RepetitionTime": 2.34,
    "SAR": 0.1459,
    "ScanOptions": "FS",
    "ScanningSequence": "EP",
    "SequenceName": "_epfid2d1_64",
    "SequenceVariant": "SK",
    "SeriesDescription": "fMRI_2",
    "SeriesNumber": 5,
    "ShimSetting": [
      -1707,
      -3806,
      -4245,
      600,
      421,
      -287,
      61,
      -446
    ],
    "SliceThickness": 3,
    "SliceTiming": [
      2.2525,
      2.1825,
      2.115,
      2.0475,
      1.98,
      1.91,
      1.8425,
      1.775,
      1.705,
      1.6375,
      1.57,
      1.5025,
      1.4325,
      1.365,
      1.2975,
      1.2275,
      1.16,
      1.0925,
      1.0225,
      0.955,
      0.8875,
      0.82,
      0.75,
      0.6825,
      0.615,
      0.545,
      0.4775,
      0.41,
      0.3425,
      0.2725,
      0.205,
      0.1375,
      0.0675,
      0
    ],
    "SoftwareVersions": "syngo_MR_D13",
    "SpacingBetweenSlices": 3.3,
    "StationName": "FBMTMR1",
    "TaskName": "read",
    "TotalReadoutTime": 0.0409508,
    "TxRefAmp": 329.259,
    "dataset": "ds003126",
    "dcmmeta_affine": [
      [
        -2.9975602626800537,
        0.05232257768511772,
        -0.11996906250715256,
        93.25025939941406
      ],
      [
        0.06843256950378418,
        2.963899850845337,
        -0.5048198699951172,
        -109.93051147460938
      ],
      [
        -0.09974630922079086,
        0.46104174852371216,
        3.258951425552368,
        -15.218703269958496
      ],
      [
        0.0,
        0.0,
        0.0,
        1.0
      ]
    ],
    "dcmmeta_reorient_transform": [
      [
        0.0,
        -1.0,
        0.0,
        63.0
      ],
      [
        1.0,
        0.0,
        0.0,
        0.0
      ],
      [
        0.0,
        0.0,
        1.0,
        0.0
      ],
      [
        0.0,
        0.0,
        0.0,
        1.0
      ]
    ],
    "dcmmeta_shape": [
      64,
      64,
      34,
      127
    ],
    "dcmmeta_slice_dim": 2,
    "dcmmeta_version": 0.6,
    "global": {
      "const": {
        "AcquisitionMatrix": [
          64,
          0,
          0,
          64
        ],
        "AngioFlag": "N",
        "BitsAllocated": 16,
        "BitsStored": 12,
        "BodyPartExamined": "HEAD",
        "Columns": 384,
        "EchoNumbers": 1,
        "EchoTime": 33.0,
        "EchoTrainLength": 64,
        "FlipAngle": 90.0,
        "HighBit": 11,
        "ImageOrientationPatient": [
          0.99918676137577,
          -0.0228108575117,
          -0.0332487694658,
          0.017440859742,
          0.98796664675943,
          -0.1536805820603
        ],
        "ImagePositionPatient": [
          -584.52784288227,
          -540.06996383187,
          103.553015101
        ],
        "ImageType": [
          "ORIGINAL",
          "PRIMARY",
          "M",
          "ND",
          "NORM",
          "MOSAIC"
        ],
        "ImagedNucleus": "1H",
        "ImagingFrequency": 123.220055,
        "InPlanePhaseEncodingDirection": "COL",
        "MRAcquisitionType": "2D",
        "MagneticFieldStrength": 3.0,
        "Manufacturer": "SIEMENS",
        "ManufacturerModelName": "Skyra",
        "Modality": "MR",
        "NumberOfAverages": 1.0,
        "NumberOfPhaseEncodingSteps": 64,
        "PercentPhaseFieldOfView": 100.0,
        "PercentSampling": 100.0,
        "PerformedProcedureStepStartTime": "092053.971000",
        "PhotometricInterpretation": "MONOCHROME2",
        "PixelBandwidth": 1700.0,
        "PixelRepresentation": 0,
        "PixelSpacing": [
          3.0,
          3.0
        ],
        "ProtocolName": "fMRI_2",
        "RepetitionTime": 2340.0,
        "Rows": 384,
        "SAR": 0.14589962055098,
        "SamplesPerPixel": 1,
        "ScanOptions": "FS",
        "ScanningSequence": "EP",
        "SequenceName": "*epfid2d1_64",
        "SequenceVariant": "SK",
        "SeriesDescription": "fMRI_2",
        "SeriesNumber": 5,
        "SeriesTime": "093519.193000",
        "SliceLocation": -1.6027444430691,
        "SliceThickness": 3.0,
        "SmallestImagePixelValue": 0,
        "SoftwareVersions": "syngo MR D13",
        "SpacingBetweenSlices": 3.3000000986713,
        "SpecificCharacterSet": "ISO_IR 100",
        "StudyID": "1",
        "StudyTime": "092053.872000",
        "TransmitCoilName": "Body",
        "VariableFlipAngleFlag": "N",
        "WindowCenterWidthExplanation": "Algo1",
        "dBdt": 0.0
      },
      "slices": {}
    },
    "modality": "bold",
    "run_id": 2,
    "session_id": "2",
    "subject_id": "047EPKL012069",
    "task_id": "read",
    "time": {
      "samples": {
        "AcquisitionNumber": [
          1,
          2,
          3,
          4,
          5,
          6,
          7,
          8,
          9,
          10,
          11,
          12,
          13,
          14,
          15,
          16,
          17,
          18,
          19,
          20,
          21,
          22,
          23,
          24,
          25,
          26,
          27,
          28,
          29,
          30,
          31,
          32,
          33,
          34,
          35,
          36,
          37,
          38,
          39,
          40,
          41,
          42,
          43,
          44,
          45,
          46,
          47,
          48,
          49,
          50,
          51,
          52,
          53,
          54,
          55,
          56,
          57,
          58,
          59,
          60,
          61,
          62,
          63,
          64,
          65,
          66,
          67,
          68,
          69,
          70,
          71,
          72,
          73,
          74,
          75,
          76,
          77,
          78,
          79,
          80,
          81,
          82,
          83,
          84,
          85,
          86,
          87,
          88,
          89,
          90,
          91,
          92,
          93,
          94,
          95,
          96,
          97,
          98,
          99,
          100,
          101,
          102,
          103,
          104,
          105,
          106,
          107,
          108,
          109,
          110,
          111,
          112,
          113,
          114,
          115,
          116,
          117,
          118,
          119,
          120,
          121,
          122,
          123,
          124,
          125,
          126,
          127
        ],
        "AcquisitionTime": [
          "093421.160000",
          "093423.500000",
          "093425.840000",
          "093428.180000",
          "093430.520000",
          "093432.860000",
          "093435.200000",
          "093437.540000",
          "093439.880000",
          "093442.220000",
          "093444.560000",
          "093446.900000",
          "093449.240000",
          "093451.580000",
          "093453.920000",
          "093456.260000",
          "093458.600000",
          "093500.940000",
          "093503.280000",
          "093505.620000",
          "093507.960000",
          "093510.300000",
          "093512.640000",
          "093514.980000",
          "093517.320000",
          "093519.660000",
          "093522.000000",
          "093524.340000",
          "093526.680000",
          "093529.020000",
          "093531.360000",
          "093533.700000",
          "093536.040000",
          "093538.380000",
          "093540.720000",
          "093543.060000",
          "093545.400000",
          "093547.740000",
          "093550.080000",
          "093552.420000",
          "093554.760000",
          "093557.100000",
          "093559.440000",
          "093601.780000",
          "093604.120000",
          "093606.460000",
          "093608.800000",
          "093611.140000",
          "093613.480000",
          "093615.820000",
          "093618.160000",
          "093620.500000",
          "093622.840000",
          "093625.180000",
          "093627.520000",
          "093629.860000",
          "093632.200000",
          "093634.540000",
          "093636.880000",
          "093639.220000",
          "093641.560000",
          "093643.900000",
          "093646.240000",
          "093648.580000",
          "093650.920000",
          "093653.260000",
          "093655.600000",
          "093657.940000",
          "093700.280000",
          "093702.620000",
          "093704.960000",
          "093707.300000",
          "093709.640000",
          "093711.980000",
          "093714.320000",
          "093716.660000",
          "093719.000000",
          "093721.340000",
          "093723.680000",
          "093726.020000",
          "093728.360000",
          "093730.700000",
          "093733.040000",
          "093735.380000",
          "093737.720000",
          "093740.060000",
          "093742.400000",
          "093744.740000",
          "093747.080000",
          "093749.420000",
          "093751.760000",
          "093754.100000",
          "093756.440000",
          "093758.780000",
          "093801.120000",
          "093803.460000",
          "093805.800000",
          "093808.140000",
          "093810.480000",
          "093812.820000",
          "093815.160000",
          "093817.500000",
          "093819.840000",
          "093822.180000",
          "093824.520000",
          "093826.860000",
          "093829.200000",
          "093831.540000",
          "093833.880000",
          "093836.220000",
          "093838.560000",
          "093840.900000",
          "093843.240000",
          "093845.580000",
          "093847.920000",
          "093850.260000",
          "093852.600000",
          "093854.940000",
          "093857.280000",
          "093859.620000",
          "093901.960000",
          "093904.300000",
          "093906.640000",
          "093908.980000",
          "093911.320000",
          "093913.660000",
          "093916.000000"
        ],
        "ContentTime": [
          "093519.198000",
          "093519.202000",
          "093519.211000",
          "093519.214000",
          "093519.216000",
          "093519.219000",
          "093519.222000",
          "093519.224000",
          "093519.227000",
          "093519.230000",
          "093519.232000",
          "093519.235000",
          "093519.237000",
          "093519.240000",
          "093519.243000",
          "093519.246000",
          "093519.248000",
          "093519.251000",
          "093519.254000",
          "093519.257000",
          "093519.259000",
          "093519.262000",
          "093519.271000",
          "093519.274000",
          "093519.276000",
          "093619.191000",
          "093619.194000",
          "093619.198000",
          "093619.200000",
          "093619.203000",
          "093619.205000",
          "093619.208000",
          "093619.212000",
          "093619.215000",
          "093619.218000",
          "093619.221000",
          "093619.223000",
          "093619.226000",
          "093619.228000",
          "093619.231000",
          "093619.234000",
          "093619.236000",
          "093619.239000",
          "093619.242000",
          "093619.245000",
          "093619.247000",
          "093619.250000",
          "093619.253000",
          "093619.255000",
          "093619.258000",
          "093619.260000",
          "093719.191000",
          "093719.194000",
          "093719.201000",
          "093719.204000",
          "093719.207000",
          "093719.209000",
          "093719.212000",
          "093719.215000",
          "093719.217000",
          "093719.220000",
          "093719.223000",
          "093719.225000",
          "093719.228000",
          "093719.235000",
          "093719.238000",
          "093719.241000",
          "093719.244000",
          "093719.246000",
          "093719.249000",
          "093719.252000",
          "093719.254000",
          "093719.257000",
          "093719.260000",
          "093719.262000",
          "093719.265000",
          "093819.192000",
          "093819.195000",
          "093819.198000",
          "093819.200000",
          "093819.207000",
          "093819.210000",
          "093819.212000",
          "093819.215000",
          "093819.218000",
          "093819.220000",
          "093819.223000",
          "093819.226000",
          "093819.228000",
          "093819.231000",
          "093819.233000",
          "093819.236000",
          "093819.239000",
          "093819.242000",
          "093819.244000",
          "093819.247000",
          "093819.249000",
          "093819.252000",
          "093819.255000",
          "093819.257000",
          "093819.260000",
          "093819.269000",
          "093917.850000",
          "093917.853000",
          "093917.856000",
          "093917.859000",
          "093917.869000",
          "093917.872000",
          "093917.875000",
          "093917.879000",
          "093917.882000",
          "093917.885000",
          "093917.887000",
          "093917.908000",
          "093917.911000",
          "093917.915000",
          "093917.918000",
          "093917.921000",
          "093917.924000",
          "093917.927000",
          "093917.929000",
          "093917.932000",
          "093917.935000",
          "093917.938000",
          "093917.941000",
          "093917.944000",
          "093917.947000"
        ],
        "InstanceCreationTime": [
          "093519.198000",
          "093519.202000",
          "093519.211000",
          "093519.214000",
          "093519.216000",
          "093519.219000",
          "093519.222000",
          "093519.224000",
          "093519.227000",
          "093519.230000",
          "093519.232000",
          "093519.235000",
          "093519.237000",
          "093519.240000",
          "093519.243000",
          "093519.246000",
          "093519.248000",
          "093519.251000",
          "093519.254000",
          "093519.257000",
          "093519.259000",
          "093519.262000",
          "093519.271000",
          "093519.274000",
          "093519.276000",
          "093619.191000",
          "093619.194000",
          "093619.198000",
          "093619.200000",
          "093619.203000",
          "093619.205000",
          "093619.208000",
          "093619.212000",
          "093619.215000",
          "093619.218000",
          "093619.221000",
          "093619.223000",
          "093619.226000",
          "093619.228000",
          "093619.231000",
          "093619.234000",
          "093619.236000",
          "093619.239000",
          "093619.242000",
          "093619.245000",
          "093619.247000",
          "093619.250000",
          "093619.253000",
          "093619.255000",
          "093619.258000",
          "093619.260000",
          "093719.191000",
          "093719.194000",
          "093719.201000",
          "093719.204000",
          "093719.207000",
          "093719.209000",
          "093719.212000",
          "093719.215000",
          "093719.217000",
          "093719.220000",
          "093719.223000",
          "093719.225000",
          "093719.228000",
          "093719.235000",
          "093719.238000",
          "093719.241000",
          "093719.244000",
          "093719.246000",
          "093719.249000",
          "093719.252000",
          "093719.254000",
          "093719.257000",
          "093719.260000",
          "093719.262000",
          "093719.265000",
          "093819.192000",
          "093819.195000",
          "093819.198000",
          "093819.200000",
          "093819.207000",
          "093819.210000",
          "093819.212000",
          "093819.215000",
          "093819.218000",
          "093819.220000",
          "093819.223000",
          "093819.226000",
          "093819.228000",
          "093819.231000",
          "093819.233000",
          "093819.236000",
          "093819.239000",
          "093819.242000",
          "093819.244000",
          "093819.247000",
          "093819.249000",
          "093819.252000",
          "093819.255000",
          "093819.257000",
          "093819.260000",
          "093819.269000",
          "093917.850000",
          "093917.853000",
          "093917.856000",
          "093917.859000",
          "093917.869000",
          "093917.872000",
          "093917.875000",
          "093917.879000",
          "093917.882000",
          "093917.885000",
          "093917.887000",
          "093917.908000",
          "093917.911000",
          "093917.915000",
          "093917.918000",
          "093917.921000",
          "093917.924000",
          "093917.927000",
          "093917.929000",
          "093917.932000",
          "093917.935000",
          "093917.938000",
          "093917.941000",
          "093917.944000",
          "093917.947000"
        ],
        "InstanceNumber": [
          1,
          2,
          3,
          4,
          5,
          6,
          7,
          8,
          9,
          10,
          11,
          12,
          13,
          14,
          15,
          16,
          17,
          18,
          19,
          20,
          21,
          22,
          23,
          24,
          25,
          26,
          27,
          28,
          29,
          30,
          31,
          32,
          33,
          34,
          35,
          36,
          37,
          38,
          39,
          40,
          41,
          42,
          43,
          44,
          45,
          46,
          47,
          48,
          49,
          50,
          51,
          52,
          53,
          54,
          55,
          56,
          57,
          58,
          59,
          60,
          61,
          62,
          63,
          64,
          65,
          66,
          67,
          68,
          69,
          70,
          71,
          72,
          73,
          74,
          75,
          76,
          77,
          78,
          79,
          80,
          81,
          82,
          83,
          84,
          85,
          86,
          87,
          88,
          89,
          90,
          91,
          92,
          93,
          94,
          95,
          96,
          97,
          98,
          99,
          100,
          101,
          102,
          103,
          104,
          105,
          106,
          107,
          108,
          109,
          110,
          111,
          112,
          113,
          114,
          115,
          116,
          117,
          118,
          119,
          120,
          121,
          122,
          123,
          124,
          125,
          126,
          127
        ],
        "LargestImagePixelValue": [
          1807,
          2156,
          2268,
          2537,
          2928,
          2365,
          2125,
          2271,
          2225,
          2145,
          2523,
          2427,
          1833,
          2303,
          2648,
          2447,
          2169,
          2292,
          2513,
          2201,
          2251,
          2179,
          2236,
          1940,
          2308,
          2335,
          2274,
          2536,
          2859,
          2697,
          2096,
          1843,
          2096,
          2109,
          2916,
          1931,
          2148,
          2049,
          2243,
          2058,
          2827,
          2252,
          1917,
          2062,
          2766,
          2278,
          1862,
          2333,
          2361,
          2047,
          2174,
          2315,
          2009,
          2268,
          1859,
          2303,
          2287,
          2330,
          2392,
          2450,
          2072,
          2401,
          3229,
          2371,
          1753,
          2022,
          2012,
          2299,
          2120,
          2665,
          2779,
          1876,
          2344,
          2162,
          2075,
          2469,
          2086,
          2063,
          1736,
          2724,
          2157,
          2674,
          2436,
          1996,
          2068,
          2365,
          2673,
          2043,
          1986,
          2083,
          2381,
          2495,
          1849,
          2455,
          2395,
          2311,
          2060,
          2409,
          1902,
          2456,
          2043,
          2225,
          1793,
          1874,
          2621,
          2905,
          2174,
          2205,
          1747,
          2563,
          2841,
          3111,
          2416,
          1883,
          2187,
          2248,
          2092,
          2635,
          1955,
          2186,
          2256,
          1972,
          2171,
          3009,
          2054,
          1807,
          2476
        ],
        "WindowCenter": [
          783.0,
          782.0,
          783.0,
          784.0,
          785.0,
          782.0,
          783.0,
          785.0,
          783.0,
          783.0,
          781.0,
          783.0,
          780.0,
          781.0,
          783.0,
          782.0,
          779.0,
          781.0,
          779.0,
          779.0,
          779.0,
          778.0,
          778.0,
          780.0,
          781.0,
          779.0,
          779.0,
          781.0,
          779.0,
          779.0,
          779.0,
          778.0,
          780.0,
          780.0,
          781.0,
          782.0,
          781.0,
          783.0,
          782.0,
          781.0,
          783.0,
          783.0,
          781.0,
          783.0,
          784.0,
          781.0,
          781.0,
          781.0,
          780.0,
          779.0,
          783.0,
          784.0,
          782.0,
          784.0,
          781.0,
          782.0,
          782.0,
          783.0,
          782.0,
          782.0,
          783.0,
          783.0,
          785.0,
          778.0,
          780.0,
          783.0,
          782.0,
          784.0,
          783.0,
          783.0,
          783.0,
          782.0,
          781.0,
          782.0,
          784.0,
          783.0,
          786.0,
          784.0,
          784.0,
          787.0,
          781.0,
          784.0,
          782.0,
          781.0,
          784.0,
          784.0,
          783.0,
          783.0,
          783.0,
          785.0,
          785.0,
          784.0,
          784.0,
          786.0,
          786.0,
          785.0,
          784.0,
          784.0,
          783.0,
          786.0,
          785.0,
          785.0,
          783.0,
          788.0,
          789.0,
          787.0,
          781.0,
          782.0,
          783.0,
          789.0,
          786.0,
          783.0,
          783.0,
          783.0,
          786.0,
          785.0,
          784.0,
          788.0,
          783.0,
          785.0,
          785.0,
          786.0,
          786.0,
          786.0,
          782.0,
          784.0,
          787.0
        ],
        "WindowWidth": [
          1670.0,
          1668.0,
          1670.0,
          1673.0,
          1674.0,
          1670.0,
          1670.0,
          1674.0,
          1670.0,
          1672.0,
          1666.0,
          1669.0,
          1662.0,
          1666.0,
          1672.0,
          1666.0,
          1661.0,
          1666.0,
          1662.0,
          1657.0,
          1659.0,
          1658.0,
          1658.0,
          1663.0,
          1665.0,
          1659.0,
          1660.0,
          1666.0,
          1661.0,
          1658.0,
          1658.0,
          1656.0,
          1663.0,
          1659.0,
          1664.0,
          1668.0,
          1665.0,
          1670.0,
          1668.0,
          1666.0,
          1672.0,
          1669.0,
          1664.0,
          1671.0,
          1676.0,
          1663.0,
          1666.0,
          1666.0,
          1662.0,
          1661.0,
          1670.0,
          1674.0,
          1667.0,
          1672.0,
          1663.0,
          1666.0,
          1669.0,
          1669.0,
          1668.0,
          1668.0,
          1670.0,
          1672.0,
          1676.0,
          1657.0,
          1663.0,
          1670.0,
          1667.0,
          1676.0,
          1670.0,
          1670.0,
          1672.0,
          1667.0,
          1664.0,
          1668.0,
          1676.0,
          1676.0,
          1677.0,
          1671.0,
          1673.0,
          1682.0,
          1667.0,
          1674.0,
          1670.0,
          1665.0,
          1673.0,
          1675.0,
          1671.0,
          1670.0,
          1672.0,
          1675.0,
          1676.0,
          1675.0,
          1672.0,
          1681.0,
          1681.0,
          1675.0,
          1671.0,
          1676.0,
          1670.0,
          1681.0,
          1678.0,
          1676.0,
          1671.0,
          1684.0,
          1687.0,
          1683.0,
          1666.0,
          1669.0,
          1672.0,
          1688.0,
          1679.0,
          1673.0,
          1670.0,
          1670.0,
          1678.0,
          1675.0,
          1675.0,
          1687.0,
          1671.0,
          1675.0,
          1677.0,
          1677.0,
          1679.0,
          1681.0,
          1670.0,
          1674.0,
          1683.0
        ]
      },
      "slices": {}
    }
  },
  "dummy_trs": 0,
  "dvars_nstd": 44.23823606412698,
  "dvars_std": 1.3482188661111112,
  "dvars_vstd": 1.0814779132539678,
  "efc": 0.5566844923260662,
  "fber": 1658.3873291015625,
  "fd_mean": 0.7214228203960897,
  "fd_num": 114,
  "fd_perc": 89.76377952755905,
  "fwhm_avg": 1.5842936077818408,
  "fwhm_x": 1.4963666666666666,
  "fwhm_y": 1.77299,
  "fwhm_z": 1.4835241566788553,
  "gcor": 0.0496757,
  "gsr_x": -0.00824003480374813,
  "gsr_y": 0.03702706843614578,
  "provenance": {
    "md5sum": "fe34628932f34c5f185d28fdc7a82a4e",
    "settings": {
      "fd_thres": 0.2,
      "testing": false
    },
    "software": "mriqc",
    "version": "22.0.1",
    "webapi_port": null,
    "webapi_url": "https://mriqc.nimh.nih.gov/api/v1"
  },
  "size_t": 127,
  "size_x": 64,
  "size_y": 64,
  "size_z": 34,
  "snr": 7.406384401090488,
  "spacing_tr": 2.3399999141693115,
  "spacing_x": 3.0,
  "spacing_y": 3.0,
  "spacing_z": 3.3000001907348633,
  "summary_bg_k": 65.98761311083636,
  "summary_bg_mad": 9.806188881650673,
  "summary_bg_mean": 34.77313232421875,
  "summary_bg_median": 22.023622512817383,
  "summary_bg_n": 75224.0,
  "summary_bg_p05": 12.519684791564941,
  "summary_bg_p95": 93.44763984680169,
  "summary_bg_stdv": 46.890777587890625,
  "summary_fg_k": 2.498962110276434,
  "summary_fg_mad": 122.88672098595796,
  "summary_fg_mean": 920.943359375,
  "summary_fg_median": 918.4015502929688,
  "summary_fg_n": 31878.0,
  "summary_fg_p05": 744.3539154052735,
  "summary_fg_p95": 1111.9960632324216,
  "summary_fg_stdv": 123.9993896484375,
  "tsnr": 44.061874707229435
}