{
  "aor": 0.01075875968992248,
  "aqi": 0.02587804472868217,
  "bids_meta": {
    "AcquisitionMatrixPE": 64,
    "AcquisitionNumber": 1,
    "AcquisitionTime": "09:28:31.467500",
    "BandwidthPerPixelPhaseEncode": 24.038,
    "BaseResolution": 64,
    "BodyPartExamined": "HEAD",
    "ConsistencyInfo": "N4_VD13A_LATEST_20120616",
    "ConversionSoftware": "dcm2niix",
    "ConversionSoftwareVersion": "v1.0.20181125  GCC6.3.0",
    "DerivedVendorReportedEchoSpacing": 0.000650012,
    "DeviceSerialNumber": "45250",
    "DwellTime": 4.6e-06,
    "EchoTime": 0.033,
    "EchoTrainLength": 64,
    "EffectiveEchoSpacing": 0.000650012,
    "FlipAngle": 90,
    "ImageOrientationPatientDICOM": [
      0.999187,
      -0.0228109,
      -0.0332488,
      0.0174409,
      0.987967,
      -0.153681
    ],
    "ImageType": [
      "ORIGINAL",
      "PRIMARY",
      "M",
      "ND",
      "NORM",
      "MOSAIC"
    ],
    "ImagingFrequency": 123.22,
    "InPlanePhaseEncodingDirectionDICOM": "COL",
    "InstitutionAddress": "Kopernikusstr._26_Graz_Graz_AT_8010",
    "InstitutionName": "KFU",
    "InstitutionalDepartmentName": "Department",
    "MRAcquisitionType": "2D",
    "MagneticFieldStrength": 3,
    "Manufacturer": "Siemens",
    "ManufacturersModelName": "Skyra",
    "Modality": "MR",
    "PartialFourier": 1,
    "PatientPosition": "HFS",
    "PercentPhaseFOV": 100,
    "PhaseEncodingDirection": "j-",
    "PhaseEncodingSteps": 64,
    "PhaseResolution": 1,
    "PixelBandwidth": 1700,
    "ProcedureStepDescription": "KFU_Entw-Psy",
    "ProtocolName": "fMRI_1",
    "PulseSequenceDetails": "%SiemensSeq%_ep2d_pace",
    "ReceiveCoilActiveElements": "HE1-4",
    "ReceiveCoilName": "HeadNeck_20",
    "ReconMatrixPE": 64,
    "RepetitionTime": 2.34,
    "SAR": 0.1459,
    "ScanOptions": "FS",
    "ScanningSequence": "EP",
    "SequenceName": "_epfid2d1_64",
    "SequenceVariant": "SK",
    "SeriesDescription": "fMRI_1",
    "SeriesNumber": 2,
    "ShimSetting": [
      -1707,
      -3806,
      -4245,
      600,
      421,
      -287,
      61,
      -446
    ],
    "SliceThickness": 3,
    "SliceTiming": [
      2.2525,
      2.1825,
      2.115,
      2.0475,
      1.98,
      1.91,
      1.8425,
      1.775,
      1.705,
      1.6375,
      1.57,
      1.5025,
      1.4325,
      1.365,
      1.2975,
      1.2275,
      1.16,
      1.0925,
      1.025,
      0.955,
      0.8875,
      0.82,
      0.75,
      0.6825,
      0.615,
      0.545,
      0.4775,
      0.41,
      0.3425,
      0.2725,
      0.205,
      0.1375,
      0.0675,
      0
    ],
    "SoftwareVersions": "syngo_MR_D13",
    "SpacingBetweenSlices": 3.3,
    "StationName": "FBMTMR1",
    "TaskName": "read",
    "TotalReadoutTime": 0.0409508,
    "TxRefAmp": 329.259,
    "dataset": "ds003126",
    "dcmmeta_affine": [
      [
        -2.9975602626800537,
        0.05232257768511772,
        -0.11996906250715256,
        93.25025939941406
      ],
      [
        0.06843256950378418,
        2.963899850845337,
        -0.5048198699951172,
        -109.93051147460938
      ],
      [
        -0.09974630922079086,
        0.46104174852371216,
        3.258951425552368,
        -15.218703269958496
      ],
      [
        0.0,
        0.0,
        0.0,
        1.0
      ]
    ],
    "dcmmeta_reorient_transform": [
      [
        0.0,
        -1.0,
        0.0,
        63.0
      ],
      [
        1.0,
        0.0,
        0.0,
        0.0
      ],
      [
        0.0,
        0.0,
        1.0,
        0.0
      ],
      [
        0.0,
        0.0,
        0.0,
        1.0
      ]
    ],
    "dcmmeta_shape": [
      64,
      64,
      34,
      129
    ],
    "dcmmeta_slice_dim": 2,
    "dcmmeta_version": 0.6,
    "global": {
      "const": {
        "AcquisitionMatrix": [
          64,
          0,
          0,
          64
        ],
        "AngioFlag": "N",
        "BitsAllocated": 16,
        "BitsStored": 12,
        "BodyPartExamined": "HEAD",
        "Columns": 384,
        "EchoNumbers": 1,
        "EchoTime": 33.0,
        "EchoTrainLength": 64,
        "FlipAngle": 90.0,
        "HighBit": 11,
        "ImageOrientationPatient": [
          0.99918676137577,
          -0.0228108575117,
          -0.0332487694658,
          0.017440859742,
          0.98796664675943,
          -0.1536805820603
        ],
        "ImagePositionPatient": [
          -584.52784288227,
          -540.06996383187,
          103.553015101
        ],
        "ImageType": [
          "ORIGINAL",
          "PRIMARY",
          "M",
          "ND",
          "NORM",
          "MOSAIC"
        ],
        "ImagedNucleus": "1H",
        "ImagingFrequency": 123.220054,
        "InPlanePhaseEncodingDirection": "COL",
        "MRAcquisitionType": "2D",
        "MagneticFieldStrength": 3.0,
        "Manufacturer": "SIEMENS",
        "ManufacturerModelName": "Skyra",
        "Modality": "MR",
        "NumberOfAverages": 1.0,
        "NumberOfPhaseEncodingSteps": 64,
        "PercentPhaseFieldOfView": 100.0,
        "PercentSampling": 100.0,
        "PerformedProcedureStepStartTime": "092053.971000",
        "PhotometricInterpretation": "MONOCHROME2",
        "PixelBandwidth": 1700.0,
        "PixelRepresentation": 0,
        "PixelSpacing": [
          3.0,
          3.0
        ],
        "ProtocolName": "fMRI_1",
        "RepetitionTime": 2340.0,
        "Rows": 384,
        "SAR": 0.14589962055098,
        "SamplesPerPixel": 1,
        "ScanOptions": "FS",
        "ScanningSequence": "EP",
        "SequenceName": "*epfid2d1_64",
        "SequenceVariant": "SK",
        "SeriesDescription": "fMRI_1",
        "SeriesNumber": 2,
        "SeriesTime": "092919.417000",
        "SliceLocation": -1.6027444430691,
        "SliceThickness": 3.0,
        "SmallestImagePixelValue": 0,
        "SoftwareVersions": "syngo MR D13",
        "SpacingBetweenSlices": 3.3000000986713,
        "SpecificCharacterSet": "ISO_IR 100",
        "StudyID": "1",
        "StudyTime": "092053.872000",
        "TransmitCoilName": "Body",
        "VariableFlipAngleFlag": "N",
        "WindowCenterWidthExplanation": "Algo1",
        "dBdt": 0.0
      },
      "slices": {}
    },
    "modality": "bold",
    "run_id": 1,
    "session_id": "2",
    "subject_id": "047EPKL012069",
    "task_id": "read",
    "time": {
      "samples": {
        "AcquisitionNumber": [
          1,
          2,
          3,
          4,
          5,
          6,
          7,
          8,
          9,
          10,
          11,
          12,
          13,
          14,
          15,
          16,
          17,
          18,
          19,
          20,
          21,
          22,
          23,
          24,
          25,
          26,
          27,
          28,
          29,
          30,
          31,
          32,
          33,
          34,
          35,
          36,
          37,
          38,
          39,
          40,
          41,
          42,
          43,
          44,
          45,
          46,
          47,
          48,
          49,
          50,
          51,
          52,
          53,
          54,
          55,
          56,
          57,
          58,
          59,
          60,
          61,
          62,
          63,
          64,
          65,
          66,
          67,
          68,
          69,
          70,
          71,
          72,
          73,
          74,
          75,
          76,
          77,
          78,
          79,
          80,
          81,
          82,
          83,
          84,
          85,
          86,
          87,
          88,
          89,
          90,
          91,
          92,
          93,
          94,
          95,
          96,
          97,
          98,
          99,
          100,
          101,
          102,
          103,
          104,
          105,
          106,
          107,
          108,
          109,
          110,
          111,
          112,
          113,
          114,
          115,
          116,
          117,
          118,
          119,
          120,
          121,
          122,
          123,
          124,
          125,
          126,
          127,
          128,
          129
        ],
        "AcquisitionTime": [
          "092831.467500",
          "092833.807500",
          "092836.147500",
          "092838.487500",
          "092840.827500",
          "092843.167500",
          "092845.507500",
          "092847.847500",
          "092850.187500",
          "092852.527500",
          "092854.867500",
          "092857.207500",
          "092859.547500",
          "092901.887500",
          "092904.227500",
          "092906.567500",
          "092908.907500",
          "092911.247500",
          "092913.587500",
          "092915.927500",
          "092918.267500",
          "092920.607500",
          "092922.947500",
          "092925.287500",
          "092927.627500",
          "092929.967500",
          "092932.307500",
          "092934.647500",
          "092936.987500",
          "092939.327500",
          "092941.667500",
          "092944.007500",
          "092946.347500",
          "092948.687500",
          "092951.027500",
          "092953.367500",
          "092955.707500",
          "092958.047500",
          "093000.387500",
          "093002.727500",
          "093005.067500",
          "093007.407500",
          "093009.747500",
          "093012.087500",
          "093014.427500",
          "093016.767500",
          "093019.107500",
          "093021.447500",
          "093023.787500",
          "093026.127500",
          "093028.467500",
          "093030.807500",
          "093033.147500",
          "093035.487500",
          "093037.827500",
          "093040.167500",
          "093042.507500",
          "093044.847500",
          "093047.187500",
          "093049.527500",
          "093051.867500",
          "093054.207500",
          "093056.547500",
          "093058.887500",
          "093101.227500",
          "093103.567500",
          "093105.907500",
          "093108.247500",
          "093110.587500",
          "093112.927500",
          "093115.267500",
          "093117.607500",
          "093119.947500",
          "093122.287500",
          "093124.627500",
          "093126.967500",
          "093129.307500",
          "093131.647500",
          "093133.987500",
          "093136.327500",
          "093138.667500",
          "093141.007500",
          "093143.347500",
          "093145.687500",
          "093148.027500",
          "093150.367500",
          "093152.707500",
          "093155.047500",
          "093157.387500",
          "093159.727500",
          "093202.067500",
          "093204.407500",
          "093206.747500",
          "093209.087500",
          "093211.427500",
          "093213.767500",
          "093216.107500",
          "093218.447500",
          "093220.787500",
          "093223.127500",
          "093225.467500",
          "093227.807500",
          "093230.147500",
          "093232.487500",
          "093234.827500",
          "093237.167500",
          "093239.507500",
          "093241.847500",
          "093244.187500",
          "093246.527500",
          "093248.867500",
          "093251.207500",
          "093253.547500",
          "093255.887500",
          "093258.227500",
          "093300.567500",
          "093302.907500",
          "093305.247500",
          "093307.587500",
          "093309.927500",
          "093312.267500",
          "093314.607500",
          "093316.947500",
          "093319.287500",
          "093321.627500",
          "093323.967500",
          "093326.307500",
          "093328.647500",
          "093330.987500"
        ],
        "ContentTime": [
          "092919.421000",
          "092919.425000",
          "092919.427000",
          "092919.430000",
          "092919.433000",
          "092919.438000",
          "092919.441000",
          "092919.443000",
          "092919.446000",
          "092919.449000",
          "092919.452000",
          "092919.454000",
          "092919.457000",
          "092919.460000",
          "092919.462000",
          "092919.465000",
          "092919.467000",
          "092919.470000",
          "092919.473000",
          "092919.476000",
          "092919.479000",
          "093019.414000",
          "093019.426000",
          "093019.428000",
          "093019.431000",
          "093019.433000",
          "093019.436000",
          "093019.439000",
          "093019.441000",
          "093019.444000",
          "093019.447000",
          "093019.450000",
          "093019.452000",
          "093019.455000",
          "093019.458000",
          "093019.461000",
          "093019.463000",
          "093019.466000",
          "093019.469000",
          "093019.472000",
          "093019.475000",
          "093019.478000",
          "093019.481000",
          "093019.483000",
          "093019.486000",
          "093019.489000",
          "093119.415000",
          "093119.418000",
          "093119.421000",
          "093119.431000",
          "093119.434000",
          "093119.437000",
          "093119.440000",
          "093119.443000",
          "093119.445000",
          "093119.448000",
          "093119.451000",
          "093119.453000",
          "093119.456000",
          "093119.459000",
          "093119.462000",
          "093119.465000",
          "093119.467000",
          "093119.470000",
          "093119.473000",
          "093119.476000",
          "093119.478000",
          "093119.481000",
          "093119.484000",
          "093119.487000",
          "093119.489000",
          "093119.492000",
          "093219.414000",
          "093219.417000",
          "093219.420000",
          "093219.423000",
          "093219.426000",
          "093219.428000",
          "093219.431000",
          "093219.434000",
          "093219.436000",
          "093219.439000",
          "093219.442000",
          "093219.445000",
          "093219.448000",
          "093219.450000",
          "093219.453000",
          "093219.456000",
          "093219.458000",
          "093219.461000",
          "093219.464000",
          "093219.467000",
          "093219.469000",
          "093219.472000",
          "093219.475000",
          "093219.477000",
          "093219.480000",
          "093219.483000",
          "093259.414000",
          "093259.418000",
          "093259.421000",
          "093259.423000",
          "093259.426000",
          "093259.429000",
          "093259.432000",
          "093259.434000",
          "093259.437000",
          "093259.440000",
          "093259.443000",
          "093259.446000",
          "093259.448000",
          "093259.451000",
          "093259.454000",
          "093259.456000",
          "093259.459000",
          "093332.828000",
          "093332.831000",
          "093332.835000",
          "093332.841000",
          "093332.850000",
          "093332.863000",
          "093332.866000",
          "093332.870000",
          "093332.873000",
          "093332.876000",
          "093332.881000",
          "093332.885000",
          "093332.888000",
          "093332.892000"
        ],
        "InstanceCreationTime": [
          "092919.421000",
          "092919.425000",
          "092919.427000",
          "092919.430000",
          "092919.433000",
          "092919.438000",
          "092919.441000",
          "092919.443000",
          "092919.446000",
          "092919.449000",
          "092919.452000",
          "092919.454000",
          "092919.457000",
          "092919.460000",
          "092919.462000",
          "092919.465000",
          "092919.467000",
          "092919.470000",
          "092919.473000",
          "092919.476000",
          "092919.479000",
          "093019.414000",
          "093019.426000",
          "093019.428000",
          "093019.431000",
          "093019.433000",
          "093019.436000",
          "093019.439000",
          "093019.441000",
          "093019.444000",
          "093019.447000",
          "093019.450000",
          "093019.452000",
          "093019.455000",
          "093019.458000",
          "093019.461000",
          "093019.463000",
          "093019.466000",
          "093019.469000",
          "093019.472000",
          "093019.475000",
          "093019.478000",
          "093019.481000",
          "093019.483000",
          "093019.486000",
          "093019.489000",
          "093119.415000",
          "093119.418000",
          "093119.421000",
          "093119.431000",
          "093119.434000",
          "093119.437000",
          "093119.440000",
          "093119.443000",
          "093119.445000",
          "093119.448000",
          "093119.451000",
          "093119.453000",
          "093119.456000",
          "093119.459000",
          "093119.462000",
          "093119.465000",
          "093119.467000",
          "093119.470000",
          "093119.473000",
          "093119.476000",
          "093119.478000",
          "093119.481000",
          "093119.484000",
          "093119.487000",
          "093119.489000",
          "093119.492000",
          "093219.414000",
          "093219.417000",
          "093219.420000",
          "093219.423000",
          "093219.426000",
          "093219.428000",
          "093219.431000",
          "093219.434000",
          "093219.436000",
          "093219.439000",
          "093219.442000",
          "093219.445000",
          "093219.448000",
          "093219.450000",
          "093219.453000",
          "093219.456000",
          "093219.458000",
          "093219.461000",
          "093219.464000",
          "093219.467000",
          "093219.469000",
          "093219.472000",
          "093219.475000",
          "093219.477000",
          "093219.480000",
          "093219.483000",
          "093259.414000",
          "093259.418000",
          "093259.421000",
          "093259.423000",
          "093259.426000",
          "093259.429000",
          "093259.432000",
          "093259.434000",
          "093259.437000",
          "093259.440000",
          "093259.443000",
          "093259.446000",
          "093259.448000",
          "093259.451000",
          "093259.454000",
          "093259.456000",
          "093259.459000",
          "093332.828000",
          "093332.831000",
          "093332.835000",
          "093332.841000",
          "093332.850000",
          "093332.863000",
          "093332.866000",
          "093332.870000",
          "093332.873000",
          "093332.876000",
          "093332.881000",
          "093332.885000",
          "093332.888000",
          "093332.892000"
        ],
        "InstanceNumber": [
          1,
          2,
          3,
          4,
          5,
          6,
          7,
          8,
          9,
          10,
          11,
          12,
          13,
          14,
          15,
          16,
          17,
          18,
          19,
          20,
          21,
          22,
          23,
          24,
          25,
          26,
          27,
          28,
          29,
          30,
          31,
          32,
          33,
          34,
          35,
          36,
          37,
          38,
          39,
          40,
          41,
          42,
          43,
          44,
          45,
          46,
          47,
          48,
          49,
          50,
          51,
          52,
          53,
          54,
          55,
          56,
          57,
          58,
          59,
          60,
          61,
          62,
          63,
          64,
          65,
          66,
          67,
          68,
          69,
          70,
          71,
          72,
          73,
          74,
          75,
          76,
          77,
          78,
          79,
          80,
          81,
          82,
          83,
          84,
          85,
          86,
          87,
          88,
          89,
          90,
          91,
          92,
          93,
          94,
          95,
          96,
          97,
          98,
          99,
          100,
          101,
          102,
          103,
          104,
          105,
          106,
          107,
          108,
          109,
          110,
          111,
          112,
          113,
          114,
          115,
          116,
          117,
          118,
          119,
          120,
          121,
          122,
          123,
          124,
          125,
          126,
          127,
          128,
          129
        ],
        "LargestImagePixelValue": [
          1787,
          1986,
          1887,
          2551,
          2484,
          3167,
          1980,
          2008,
          2695,
          2468,
          2175,
          2649,
          2343,
          2786,
          2497,
          1928,
          2229,
          2367,
          2906,
          2846,
          1677,
          2136,
          2465,
          2222,
          2016,
          2025,
          2637,
          2453,
          2645,
          1947,
          2159,
          2705,
          1927,
          2636,
          2273,
          2052,
          1802,
          2817,
          2616,
          1935,
          2377,
          2051,
          1845,
          2517,
          2545,
          2306,
          2560,
          2502,
          1934,
          2231,
          2611,
          2558,
          1881,
          2185,
          2446,
          2126,
          1777,
          2252,
          2972,
          2028,
          1749,
          2397,
          1752,
          2255,
          2912,
          1713,
          1928,
          2422,
          2476,
          2510,
          2324,
          1698,
          1989,
          2918,
          2381,
          1708,
          2462,
          2017,
          1716,
          2274,
          2664,
          2362,
          2299,
          2686,
          1683,
          2562,
          2469,
          2497,
          2170,
          2094,
          2538,
          2708,
          2592,
          2522,
          2159,
          2879,
          1736,
          2513,
          2132,
          1717,
          1914,
          2394,
          2748,
          2101,
          2438,
          2507,
          2566,
          2070,
          1744,
          2561,
          2721,
          2468,
          2074,
          2607,
          2001,
          2605,
          2633,
          1856,
          2311,
          2718,
          2668,
          2629,
          2942,
          2070,
          2009,
          1829,
          2338,
          2347,
          2746
        ],
        "WindowCenter": [
          777.0,
          778.0,
          779.0,
          781.0,
          781.0,
          781.0,
          779.0,
          780.0,
          783.0,
          780.0,
          780.0,
          781.0,
          779.0,
          779.0,
          777.0,
          782.0,
          782.0,
          782.0,
          780.0,
          779.0,
          775.0,
          781.0,
          783.0,
          778.0,
          780.0,
          781.0,
          780.0,
          778.0,
          777.0,
          778.0,
          777.0,
          780.0,
          780.0,
          781.0,
          776.0,
          779.0,
          780.0,
          780.0,
          780.0,
          778.0,
          778.0,
          780.0,
          780.0,
          781.0,
          778.0,
          778.0,
          781.0,
          778.0,
          777.0,
          781.0,
          781.0,
          780.0,
          779.0,
          781.0,
          780.0,
          780.0,
          780.0,
          784.0,
          784.0,
          779.0,
          780.0,
          785.0,
          781.0,
          785.0,
          786.0,
          781.0,
          782.0,
          782.0,
          781.0,
          781.0,
          782.0,
          779.0,
          782.0,
          784.0,
          781.0,
          780.0,
          782.0,
          781.0,
          782.0,
          783.0,
          784.0,
          780.0,
          779.0,
          781.0,
          780.0,
          782.0,
          782.0,
          782.0,
          783.0,
          781.0,
          782.0,
          783.0,
          783.0,
          782.0,
          782.0,
          782.0,
          782.0,
          782.0,
          781.0,
          783.0,
          783.0,
          788.0,
          785.0,
          783.0,
          784.0,
          785.0,
          783.0,
          782.0,
          782.0,
          787.0,
          785.0,
          783.0,
          783.0,
          786.0,
          787.0,
          787.0,
          784.0,
          788.0,
          787.0,
          787.0,
          787.0,
          785.0,
          787.0,
          785.0,
          784.0,
          784.0,
          786.0,
          787.0,
          788.0
        ],
        "WindowWidth": [
          1655.0,
          1660.0,
          1662.0,
          1669.0,
          1667.0,
          1669.0,
          1663.0,
          1665.0,
          1674.0,
          1663.0,
          1664.0,
          1667.0,
          1665.0,
          1665.0,
          1656.0,
          1670.0,
          1672.0,
          1668.0,
          1666.0,
          1665.0,
          1650.0,
          1667.0,
          1671.0,
          1660.0,
          1664.0,
          1670.0,
          1665.0,
          1660.0,
          1657.0,
          1659.0,
          1658.0,
          1666.0,
          1665.0,
          1668.0,
          1654.0,
          1662.0,
          1665.0,
          1665.0,
          1665.0,
          1659.0,
          1659.0,
          1665.0,
          1664.0,
          1668.0,
          1661.0,
          1661.0,
          1666.0,
          1661.0,
          1658.0,
          1667.0,
          1666.0,
          1665.0,
          1660.0,
          1667.0,
          1664.0,
          1667.0,
          1664.0,
          1676.0,
          1679.0,
          1662.0,
          1662.0,
          1682.0,
          1668.0,
          1679.0,
          1683.0,
          1667.0,
          1671.0,
          1670.0,
          1669.0,
          1669.0,
          1670.0,
          1663.0,
          1671.0,
          1676.0,
          1669.0,
          1664.0,
          1672.0,
          1666.0,
          1672.0,
          1674.0,
          1676.0,
          1664.0,
          1662.0,
          1669.0,
          1663.0,
          1672.0,
          1671.0,
          1673.0,
          1673.0,
          1668.0,
          1670.0,
          1673.0,
          1674.0,
          1671.0,
          1670.0,
          1675.0,
          1668.0,
          1673.0,
          1669.0,
          1671.0,
          1673.0,
          1688.0,
          1679.0,
          1672.0,
          1676.0,
          1677.0,
          1673.0,
          1670.0,
          1670.0,
          1685.0,
          1681.0,
          1671.0,
          1673.0,
          1687.0,
          1682.0,
          1683.0,
          1676.0,
          1687.0,
          1685.0,
          1689.0,
          1685.0,
          1681.0,
          1687.0,
          1679.0,
          1677.0,
          1677.0,
          1683.0,
          1684.0,
          1689.0
        ]
      },
      "slices": {}
    }
  },
  "dummy_trs": 0,
  "dvars_nstd": 43.84927742203126,
  "dvars_std": 1.3552998227343753,
  "dvars_vstd": 1.0812078867968753,
  "efc": 0.5532461985773951,
  "fber": 1712.340087890625,
  "fd_mean": 0.7685862666507558,
  "fd_num": 114,
  "fd_perc": 88.37209302325581,
  "fwhm_avg": 1.592394112373461,
  "fwhm_x": 1.4859733333333331,
  "fwhm_y": 1.7838666666666667,
  "fwhm_z": 1.5073423371203836,
  "gcor": 0.0680448,
  "gsr_x": -0.00495127122849226,
  "gsr_y": 0.03628099337220192,
  "provenance": {
    "md5sum": "343fd9156deeca9cbb9a50b38724bd6f",
    "settings": {
      "fd_thres": 0.2,
      "testing": false
    },
    "software": "mriqc",
    "version": "22.0.1",
    "webapi_port": null,
    "webapi_url": "https://mriqc.nimh.nih.gov/api/v1"
  },
  "size_t": 129,
  "size_x": 64,
  "size_y": 64,
  "size_z": 34,
  "snr": 7.508532315350916,
  "spacing_tr": 2.3399999141693115,
  "spacing_x": 3.0,
  "spacing_y": 3.0,
  "spacing_z": 3.3000001907348633,
  "summary_bg_k": 65.49043264871902,
  "summary_bg_mad": 9.619674497905738,
  "summary_bg_mean": 33.58943176269531,
  "summary_bg_median": 21.751937866210938,
  "summary_bg_n": 75780.0,
  "summary_bg_p05": 12.38759708404541,
  "summary_bg_p95": 89.20930480957031,
  "summary_bg_stdv": 43.17250061035156,
  "summary_fg_k": 2.3352253104140743,
  "summary_fg_mad": 121.69988813703155,
  "summary_fg_mean": 922.4608764648438,
  "summary_fg_median": 919.5115966796875,
  "summary_fg_n": 31703.0,
  "summary_fg_p05": 744.6744384765625,
  "summary_fg_p95": 1108.9767456054685,
  "summary_fg_stdv": 122.46029663085938,
  "tsnr": 41.16740633593872
}