{
  "aor": 0.008975396825396826,
  "aqi": 0.017091710079365077,
  "bids_meta": {
    "AcquisitionMatrixPE": 64,
    "AcquisitionNumber": 1,
    "AcquisitionTime": "11:44:3.207500",
    "BandwidthPerPixelPhaseEncode": 24.038,
    "BaseResolution": 64,
    "BodyPartExamined": "HEAD",
    "ConsistencyInfo": "N4_VD13A_LATEST_20120616",
    "ConversionSoftware": "dcm2niix",
    "ConversionSoftwareVersion": "v1.0.20181125  GCC6.3.0",
    "DerivedVendorReportedEchoSpacing": 0.000650012,
    "DeviceSerialNumber": "45250",
    "DwellTime": 4.6e-06,
    "EchoTime": 0.033,
    "EchoTrainLength": 64,
    "EffectiveEchoSpacing": 0.000650012,
    "FlipAngle": 90,
    "ImageOrientationPatientDICOM": [
      0.999146,
      0.0163405,
      -0.0379604,
      -0.0226737,
      0.984674,
      -0.172924
    ],
    "ImageType": [
      "ORIGINAL",
      "PRIMARY",
      "M",
      "ND",
      "NORM",
      "MOSAIC"
    ],
    "ImagingFrequency": 123.214,
    "InPlanePhaseEncodingDirectionDICOM": "COL",
    "InstitutionAddress": "Kopernikusstr._26_Graz_Graz_AT_8010",
    "InstitutionName": "KFU",
    "InstitutionalDepartmentName": "Department",
    "MRAcquisitionType": "2D",
    "MagneticFieldStrength": 3,
    "Manufacturer": "Siemens",
    "ManufacturersModelName": "Skyra",
    "Modality": "MR",
    "PartialFourier": 1,
    "PatientPosition": "HFS",
    "PercentPhaseFOV": 100,
    "PhaseEncodingDirection": "j-",
    "PhaseEncodingSteps": 64,
    "PhaseResolution": 1,
    "PixelBandwidth": 1700,
    "ProcedureStepDescription": "KFU_Entw-Psy",
    "ProtocolName": "fMRI_2",
    "PulseSequenceDetails": "%SiemensSeq%_ep2d_pace",
    "ReceiveCoilActiveElements": "HE1-4",
    "ReceiveCoilName": "HeadNeck_20",
    "ReconMatrixPE": 64,
    "RepetitionTime": 2.34,
    "SAR": 0.171705,
    "ScanOptions": "FS",
    "ScanningSequence": "EP",
    "SequenceName": "_epfid2d1_64",
    "SequenceVariant": "SK",
    "SeriesDescription": "fMRI_2",
    "SeriesNumber": 5,
    "ShimSetting": [
      -1595,
      -3627,
      -4357,
      366,
      381,
      -87,
      -175,
      -213
    ],
    "SliceThickness": 3,
    "SliceTiming": [
      2.2525,
      2.1825,
      2.115,
      2.0475,
      1.98,
      1.91,
      1.8425,
      1.775,
      1.705,
      1.6375,
      1.57,
      1.5,
      1.4325,
      1.365,
      1.2975,
      1.2275,
      1.16,
      1.0925,
      1.0225,
      0.955,
      0.8875,
      0.82,
      0.75,
      0.6825,
      0.615,
      0.545,
      0.4775,
      0.41,
      0.3425,
      0.2725,
      0.205,
      0.1375,
      0.0675,
      0
    ],
    "SoftwareVersions": "syngo_MR_D13",
    "SpacingBetweenSlices": 3.3,
    "StationName": "FBMTMR1",
    "TaskName": "read",
    "TotalReadoutTime": 0.0409508,
    "TxRefAmp": 323.697,
    "dataset": "ds003126",
    "dcmmeta_affine": [
      [
        -2.997437000274658,
        -0.06802113354206085,
        -0.11402488499879837,
        96.58639526367188
      ],
      [
        -0.04902155324816704,
        2.9540226459503174,
        -0.573000431060791,
        -104.32173919677734
      ],
      [
        -0.11388128250837326,
        0.5187706351280212,
        3.2478713989257812,
        -13.92272663116455
      ],
      [
        0.0,
        0.0,
        0.0,
        1.0
      ]
    ],
    "dcmmeta_reorient_transform": [
      [
        0.0,
        -1.0,
        0.0,
        63.0
      ],
      [
        1.0,
        0.0,
        0.0,
        0.0
      ],
      [
        0.0,
        0.0,
        1.0,
        0.0
      ],
      [
        0.0,
        0.0,
        0.0,
        1.0
      ]
    ],
    "dcmmeta_shape": [
      64,
      64,
      34,
      126
    ],
    "dcmmeta_slice_dim": 2,
    "dcmmeta_version": 0.6,
    "global": {
      "const": {
        "AcquisitionMatrix": [
          64,
          0,
          0,
          64
        ],
        "AngioFlag": "N",
        "BitsAllocated": 16,
        "BitsStored": 12,
        "BodyPartExamined": "HEAD",
        "Columns": 384,
        "EchoNumbers": 1,
        "EchoTime": 33.0,
        "EchoTrainLength": 64,
        "FlipAngle": 90.0,
        "HighBit": 11,
        "ImageOrientationPatient": [
          0.99914563173285,
          0.01634051788923,
          -0.0379604276092,
          -0.0226737102077,
          0.98467423653098,
          -0.1729235402643
        ],
        "ImagePositionPatient": [
          -561.00758796505,
          -562.2687732195,
          119.9841267378
        ],
        "ImageType": [
          "ORIGINAL",
          "PRIMARY",
          "M",
          "ND",
          "NORM",
          "MOSAIC"
        ],
        "ImagedNucleus": "1H",
        "ImagingFrequency": 123.214419,
        "InPlanePhaseEncodingDirection": "COL",
        "MRAcquisitionType": "2D",
        "MagneticFieldStrength": 3.0,
        "Manufacturer": "SIEMENS",
        "ManufacturerModelName": "Skyra",
        "Modality": "MR",
        "NumberOfAverages": 1.0,
        "NumberOfPhaseEncodingSteps": 64,
        "PercentPhaseFieldOfView": 100.0,
        "PercentSampling": 100.0,
        "PerformedProcedureStepStartTime": "113148.677000",
        "PhotometricInterpretation": "MONOCHROME2",
        "PixelBandwidth": 1700.0,
        "PixelRepresentation": 0,
        "PixelSpacing": [
          3.0,
          3.0
        ],
        "ProtocolName": "fMRI_2",
        "RepetitionTime": 2340.0,
        "Rows": 384,
        "SAR": 0.17170543992528,
        "SamplesPerPixel": 1,
        "ScanOptions": "FS",
        "ScanningSequence": "EP",
        "SequenceName": "*epfid2d1_64",
        "SequenceVariant": "SK",
        "SeriesDescription": "fMRI_2",
        "SeriesNumber": 5,
        "SeriesTime": "114507.534000",
        "SliceLocation": 1.0739167708471,
        "SliceThickness": 3.0,
        "SmallestImagePixelValue": 0,
        "SoftwareVersions": "syngo MR D13",
        "SpacingBetweenSlices": 3.2999999651481,
        "SpecificCharacterSet": "ISO_IR 100",
        "StudyID": "1",
        "StudyTime": "113148.621000",
        "TransmitCoilName": "Body",
        "VariableFlipAngleFlag": "N",
        "WindowCenterWidthExplanation": "Algo1",
        "dBdt": 0.0
      },
      "slices": {}
    },
    "modality": "bold",
    "run_id": 2,
    "session_id": "2",
    "subject_id": "047EPKL013023",
    "task_id": "read",
    "time": {
      "samples": {
        "AcquisitionNumber": [
          1,
          2,
          3,
          4,
          5,
          6,
          7,
          8,
          9,
          10,
          11,
          12,
          13,
          14,
          15,
          16,
          17,
          18,
          19,
          20,
          21,
          22,
          23,
          24,
          25,
          26,
          27,
          28,
          29,
          30,
          31,
          32,
          33,
          34,
          35,
          36,
          37,
          38,
          39,
          40,
          41,
          42,
          43,
          44,
          45,
          46,
          47,
          48,
          49,
          50,
          51,
          52,
          53,
          54,
          55,
          56,
          57,
          58,
          59,
          60,
          61,
          62,
          63,
          64,
          65,
          66,
          67,
          68,
          69,
          70,
          71,
          72,
          73,
          74,
          75,
          76,
          77,
          78,
          79,
          80,
          81,
          82,
          83,
          84,
          85,
          86,
          87,
          88,
          89,
          90,
          91,
          92,
          93,
          94,
          95,
          96,
          97,
          98,
          99,
          100,
          101,
          102,
          103,
          104,
          105,
          106,
          107,
          108,
          109,
          110,
          111,
          112,
          113,
          114,
          115,
          116,
          117,
          118,
          119,
          120,
          121,
          122,
          123,
          124,
          125,
          126
        ],
        "AcquisitionTime": [
          "114403.207500",
          "114405.547500",
          "114407.887500",
          "114410.227500",
          "114412.567500",
          "114414.907500",
          "114417.247500",
          "114419.587500",
          "114421.927500",
          "114424.267500",
          "114426.607500",
          "114428.947500",
          "114431.287500",
          "114433.627500",
          "114435.967500",
          "114438.307500",
          "114440.647500",
          "114442.987500",
          "114445.327500",
          "114447.667500",
          "114450.007500",
          "114452.347500",
          "114454.687500",
          "114457.027500",
          "114459.367500",
          "114501.707500",
          "114504.047500",
          "114506.387500",
          "114508.727500",
          "114511.067500",
          "114513.407500",
          "114515.747500",
          "114518.087500",
          "114520.427500",
          "114522.767500",
          "114525.107500",
          "114527.447500",
          "114529.787500",
          "114532.127500",
          "114534.467500",
          "114536.807500",
          "114539.147500",
          "114541.487500",
          "114543.827500",
          "114546.167500",
          "114548.507500",
          "114550.847500",
          "114553.187500",
          "114555.527500",
          "114557.867500",
          "114600.207500",
          "114602.547500",
          "114604.887500",
          "114607.227500",
          "114609.567500",
          "114611.907500",
          "114614.247500",
          "114616.587500",
          "114618.927500",
          "114621.267500",
          "114623.607500",
          "114625.947500",
          "114628.287500",
          "114630.627500",
          "114632.967500",
          "114635.307500",
          "114637.647500",
          "114639.987500",
          "114642.327500",
          "114644.667500",
          "114647.007500",
          "114649.347500",
          "114651.687500",
          "114654.027500",
          "114656.367500",
          "114658.707500",
          "114701.047500",
          "114703.387500",
          "114705.727500",
          "114708.067500",
          "114710.407500",
          "114712.747500",
          "114715.087500",
          "114717.427500",
          "114719.767500",
          "114722.107500",
          "114724.447500",
          "114726.787500",
          "114729.127500",
          "114731.467500",
          "114733.807500",
          "114736.147500",
          "114738.487500",
          "114740.827500",
          "114743.167500",
          "114745.507500",
          "114747.847500",
          "114750.187500",
          "114752.527500",
          "114754.867500",
          "114757.207500",
          "114759.547500",
          "114801.887500",
          "114804.227500",
          "114806.567500",
          "114808.907500",
          "114811.247500",
          "114813.587500",
          "114815.927500",
          "114818.267500",
          "114820.607500",
          "114822.947500",
          "114825.287500",
          "114827.627500",
          "114829.967500",
          "114832.307500",
          "114834.647500",
          "114836.987500",
          "114839.327500",
          "114841.667500",
          "114844.007500",
          "114846.347500",
          "114848.687500",
          "114851.027500",
          "114853.367500",
          "114855.707500"
        ],
        "ContentTime": [
          "114507.538000",
          "114507.542000",
          "114507.545000",
          "114507.548000",
          "114507.550000",
          "114507.553000",
          "114507.556000",
          "114507.559000",
          "114507.562000",
          "114507.564000",
          "114507.567000",
          "114507.570000",
          "114507.578000",
          "114507.581000",
          "114507.583000",
          "114507.586000",
          "114507.589000",
          "114507.592000",
          "114507.595000",
          "114507.597000",
          "114507.600000",
          "114507.603000",
          "114507.606000",
          "114507.608000",
          "114507.611000",
          "114507.614000",
          "114507.616000",
          "114507.619000",
          "114607.534000",
          "114607.537000",
          "114607.540000",
          "114607.543000",
          "114607.546000",
          "114607.548000",
          "114607.552000",
          "114607.555000",
          "114607.557000",
          "114607.560000",
          "114607.563000",
          "114607.565000",
          "114607.568000",
          "114607.571000",
          "114607.573000",
          "114607.576000",
          "114607.578000",
          "114607.581000",
          "114607.584000",
          "114607.587000",
          "114607.589000",
          "114607.592000",
          "114607.595000",
          "114607.597000",
          "114607.600000",
          "114707.532000",
          "114707.536000",
          "114707.538000",
          "114707.541000",
          "114707.544000",
          "114707.547000",
          "114707.549000",
          "114707.552000",
          "114707.555000",
          "114707.558000",
          "114707.561000",
          "114707.564000",
          "114707.567000",
          "114707.570000",
          "114707.572000",
          "114707.585000",
          "114707.588000",
          "114707.590000",
          "114707.593000",
          "114707.596000",
          "114707.599000",
          "114707.602000",
          "114707.605000",
          "114707.608000",
          "114707.611000",
          "114707.613000",
          "114807.533000",
          "114807.536000",
          "114807.539000",
          "114807.542000",
          "114807.545000",
          "114807.548000",
          "114807.551000",
          "114807.553000",
          "114807.556000",
          "114807.559000",
          "114807.562000",
          "114807.565000",
          "114807.568000",
          "114807.571000",
          "114807.574000",
          "114807.576000",
          "114807.579000",
          "114807.582000",
          "114807.585000",
          "114807.588000",
          "114807.591000",
          "114807.594000",
          "114807.596000",
          "114807.599000",
          "114807.602000",
          "114807.605000",
          "114847.534000",
          "114847.538000",
          "114847.540000",
          "114847.543000",
          "114847.546000",
          "114847.561000",
          "114847.564000",
          "114847.567000",
          "114847.569000",
          "114847.572000",
          "114847.575000",
          "114847.577000",
          "114847.580000",
          "114847.582000",
          "114847.585000",
          "114847.588000",
          "114847.590000",
          "114857.772000",
          "114857.775000",
          "114857.778000",
          "114857.781000"
        ],
        "InstanceCreationTime": [
          "114507.538000",
          "114507.542000",
          "114507.545000",
          "114507.548000",
          "114507.550000",
          "114507.553000",
          "114507.556000",
          "114507.559000",
          "114507.562000",
          "114507.564000",
          "114507.567000",
          "114507.570000",
          "114507.578000",
          "114507.581000",
          "114507.583000",
          "114507.586000",
          "114507.589000",
          "114507.592000",
          "114507.595000",
          "114507.597000",
          "114507.600000",
          "114507.603000",
          "114507.606000",
          "114507.608000",
          "114507.611000",
          "114507.614000",
          "114507.616000",
          "114507.619000",
          "114607.534000",
          "114607.537000",
          "114607.540000",
          "114607.543000",
          "114607.546000",
          "114607.548000",
          "114607.552000",
          "114607.555000",
          "114607.557000",
          "114607.560000",
          "114607.563000",
          "114607.565000",
          "114607.568000",
          "114607.571000",
          "114607.573000",
          "114607.576000",
          "114607.578000",
          "114607.581000",
          "114607.584000",
          "114607.587000",
          "114607.589000",
          "114607.592000",
          "114607.595000",
          "114607.597000",
          "114607.600000",
          "114707.532000",
          "114707.536000",
          "114707.538000",
          "114707.541000",
          "114707.544000",
          "114707.547000",
          "114707.549000",
          "114707.552000",
          "114707.555000",
          "114707.558000",
          "114707.561000",
          "114707.564000",
          "114707.567000",
          "114707.570000",
          "114707.572000",
          "114707.585000",
          "114707.588000",
          "114707.590000",
          "114707.593000",
          "114707.596000",
          "114707.599000",
          "114707.602000",
          "114707.605000",
          "114707.608000",
          "114707.611000",
          "114707.613000",
          "114807.533000",
          "114807.536000",
          "114807.539000",
          "114807.542000",
          "114807.545000",
          "114807.548000",
          "114807.551000",
          "114807.553000",
          "114807.556000",
          "114807.559000",
          "114807.562000",
          "114807.565000",
          "114807.568000",
          "114807.571000",
          "114807.574000",
          "114807.576000",
          "114807.579000",
          "114807.582000",
          "114807.585000",
          "114807.588000",
          "114807.591000",
          "114807.594000",
          "114807.596000",
          "114807.599000",
          "114807.602000",
          "114807.605000",
          "114847.534000",
          "114847.538000",
          "114847.540000",
          "114847.543000",
          "114847.546000",
          "114847.561000",
          "114847.564000",
          "114847.567000",
          "114847.569000",
          "114847.572000",
          "114847.575000",
          "114847.577000",
          "114847.580000",
          "114847.582000",
          "114847.585000",
          "114847.588000",
          "114847.590000",
          "114857.772000",
          "114857.775000",
          "114857.778000",
          "114857.781000"
        ],
        "InstanceNumber": [
          1,
          2,
          3,
          4,
          5,
          6,
          7,
          8,
          9,
          10,
          11,
          12,
          13,
          14,
          15,
          16,
          17,
          18,
          19,
          20,
          21,
          22,
          23,
          24,
          25,
          26,
          27,
          28,
          29,
          30,
          31,
          32,
          33,
          34,
          35,
          36,
          37,
          38,
          39,
          40,
          41,
          42,
          43,
          44,
          45,
          46,
          47,
          48,
          49,
          50,
          51,
          52,
          53,
          54,
          55,
          56,
          57,
          58,
          59,
          60,
          61,
          62,
          63,
          64,
          65,
          66,
          67,
          68,
          69,
          70,
          71,
          72,
          73,
          74,
          75,
          76,
          77,
          78,
          79,
          80,
          81,
          82,
          83,
          84,
          85,
          86,
          87,
          88,
          89,
          90,
          91,
          92,
          93,
          94,
          95,
          96,
          97,
          98,
          99,
          100,
          101,
          102,
          103,
          104,
          105,
          106,
          107,
          108,
          109,
          110,
          111,
          112,
          113,
          114,
          115,
          116,
          117,
          118,
          119,
          120,
          121,
          122,
          123,
          124,
          125,
          126
        ],
        "LargestImagePixelValue": [
          1795,
          1688,
          1696,
          1763,
          1766,
          1676,
          1714,
          1733,
          1939,
          1729,
          1774,
          1808,
          1793,
          1719,
          1672,
          1953,
          1948,
          1702,
          1771,
          1763,
          1718,
          1869,
          1822,
          1780,
          1785,
          1747,
          1754,
          1780,
          1782,
          1905,
          1752,
          1791,
          1757,
          1870,
          1754,
          2061,
          1756,
          1697,
          1733,
          1804,
          1862,
          1752,
          1758,
          1794,
          1757,
          1736,
          1932,
          1961,
          1892,
          1797,
          1826,
          1700,
          1796,
          1766,
          2070,
          1749,
          1832,
          1822,
          1825,
          1691,
          1731,
          1719,
          1822,
          1722,
          1709,
          1819,
          1958,
          1711,
          1780,
          1790,
          1813,
          1706,
          1756,
          1826,
          1802,
          1722,
          1724,
          1716,
          1757,
          1704,
          1813,
          2080,
          1837,
          1729,
          1771,
          1876,
          1834,
          1862,
          1791,
          1784,
          1928,
          2080,
          1739,
          1934,
          1782,
          1768,
          1769,
          1691,
          1675,
          1733,
          1733,
          1707,
          1739,
          1718,
          1805,
          1712,
          1771,
          1767,
          1725,
          1737,
          1766,
          1758,
          1757,
          1798,
          2218,
          1864,
          1751,
          2104,
          1744,
          1890,
          2040,
          1769,
          1760,
          1752,
          2111,
          2041
        ],
        "WindowCenter": [
          813.0,
          812.0,
          811.0,
          809.0,
          810.0,
          809.0,
          811.0,
          811.0,
          812.0,
          810.0,
          809.0,
          809.0,
          807.0,
          807.0,
          808.0,
          810.0,
          815.0,
          810.0,
          811.0,
          820.0,
          813.0,
          814.0,
          814.0,
          812.0,
          814.0,
          814.0,
          813.0,
          815.0,
          815.0,
          814.0,
          813.0,
          815.0,
          816.0,
          816.0,
          814.0,
          816.0,
          812.0,
          812.0,
          812.0,
          814.0,
          813.0,
          814.0,
          814.0,
          813.0,
          816.0,
          815.0,
          817.0,
          815.0,
          813.0,
          813.0,
          815.0,
          815.0,
          816.0,
          815.0,
          813.0,
          815.0,
          814.0,
          815.0,
          813.0,
          814.0,
          809.0,
          811.0,
          813.0,
          813.0,
          813.0,
          817.0,
          812.0,
          812.0,
          813.0,
          813.0,
          819.0,
          816.0,
          814.0,
          815.0,
          813.0,
          815.0,
          815.0,
          815.0,
          815.0,
          816.0,
          816.0,
          815.0,
          813.0,
          812.0,
          815.0,
          816.0,
          815.0,
          814.0,
          816.0,
          818.0,
          816.0,
          816.0,
          813.0,
          815.0,
          816.0,
          816.0,
          815.0,
          815.0,
          814.0,
          815.0,
          816.0,
          814.0,
          815.0,
          814.0,
          814.0,
          814.0,
          816.0,
          816.0,
          817.0,
          816.0,
          815.0,
          817.0,
          818.0,
          818.0,
          818.0,
          815.0,
          813.0,
          816.0,
          816.0,
          817.0,
          818.0,
          817.0,
          818.0,
          816.0,
          816.0,
          813.0
        ],
        "WindowWidth": [
          1718.0,
          1714.0,
          1712.0,
          1707.0,
          1709.0,
          1708.0,
          1712.0,
          1713.0,
          1715.0,
          1710.0,
          1707.0,
          1709.0,
          1702.0,
          1702.0,
          1706.0,
          1712.0,
          1720.0,
          1707.0,
          1711.0,
          1737.0,
          1720.0,
          1725.0,
          1723.0,
          1719.0,
          1722.0,
          1722.0,
          1720.0,
          1724.0,
          1723.0,
          1723.0,
          1721.0,
          1723.0,
          1728.0,
          1726.0,
          1723.0,
          1727.0,
          1716.0,
          1716.0,
          1717.0,
          1721.0,
          1721.0,
          1722.0,
          1721.0,
          1721.0,
          1725.0,
          1723.0,
          1730.0,
          1723.0,
          1716.0,
          1719.0,
          1724.0,
          1724.0,
          1728.0,
          1724.0,
          1718.0,
          1725.0,
          1723.0,
          1722.0,
          1722.0,
          1721.0,
          1708.0,
          1713.0,
          1717.0,
          1717.0,
          1717.0,
          1731.0,
          1718.0,
          1718.0,
          1718.0,
          1720.0,
          1732.0,
          1727.0,
          1722.0,
          1724.0,
          1720.0,
          1724.0,
          1724.0,
          1724.0,
          1724.0,
          1728.0,
          1725.0,
          1723.0,
          1718.0,
          1717.0,
          1724.0,
          1727.0,
          1723.0,
          1723.0,
          1726.0,
          1733.0,
          1727.0,
          1728.0,
          1720.0,
          1725.0,
          1726.0,
          1726.0,
          1725.0,
          1724.0,
          1721.0,
          1724.0,
          1726.0,
          1721.0,
          1724.0,
          1722.0,
          1721.0,
          1721.0,
          1726.0,
          1725.0,
          1729.0,
          1726.0,
          1724.0,
          1730.0,
          1731.0,
          1733.0,
          1733.0,
          1725.0,
          1720.0,
          1728.0,
          1728.0,
          1731.0,
          1735.0,
          1727.0,
          1729.0,
          1729.0,
          1728.0,
          1719.0
        ]
      },
      "slices": {}
    }
  },
  "dummy_trs": 0,
  "dvars_nstd": 35.3636096576,
  "dvars_std": 1.3271644923199999,
  "dvars_vstd": 1.0727630061600002,
  "efc": 0.5818704580125188,
  "fber": 1639.052001953125,
  "fd_mean": 0.49921037309961797,
  "fd_num": 92,
  "fd_perc": 73.01587301587301,
  "fwhm_avg": 1.6220475831305994,
  "fwhm_x": 1.5238466666666666,
  "fwhm_y": 1.8115233333333334,
  "fwhm_z": 1.5307727493917977,
  "gcor": 0.0734485,
  "gsr_x": -0.0034488134551793337,
  "gsr_y": 0.03974628821015358,
  "provenance": {
    "md5sum": "0edb69e592935ce8e4e16675fa0f5918",
    "settings": {
      "fd_thres": 0.2,
      "testing": false
    },
    "software": "mriqc",
    "version": "22.0.1",
    "webapi_port": null,
    "webapi_url": "https://mriqc.nimh.nih.gov/api/v1"
  },
  "size_t": 126,
  "size_x": 64,
  "size_y": 64,
  "size_z": 34,
  "snr": 7.011424102717058,
  "spacing_tr": 2.3399999141693115,
  "spacing_x": 3.0,
  "spacing_y": 3.0,
  "spacing_z": 3.299999952316284,
  "summary_bg_k": 41.103089927923484,
  "summary_bg_mad": 10.03698298730126,
  "summary_bg_mean": 38.52214813232422,
  "summary_bg_median": 22.563493728637695,
  "summary_bg_n": 70927.0,
  "summary_bg_p05": 12.50793743133545,
  "summary_bg_p95": 117.79921493530271,
  "summary_bg_stdv": 54.01295471191406,
  "summary_fg_k": 3.168601127810253,
  "summary_fg_mad": 126.29184672944285,
  "summary_fg_mean": 938.0628051757812,
  "summary_fg_median": 934.9762573242188,
  "summary_fg_n": 35738.0,
  "summary_fg_p05": 748.1484375,
  "summary_fg_p95": 1138.711181640625,
  "summary_fg_stdv": 133.34854125976562,
  "tsnr": 52.22323521785438
}