{
  "aor": 0.008967322834645668,
  "aqi": 0.014774542283464568,
  "bids_meta": {
    "AcquisitionMatrixPE": 64,
    "AcquisitionNumber": 1,
    "AcquisitionTime": "11:50:10.057500",
    "BandwidthPerPixelPhaseEncode": 24.038,
    "BaseResolution": 64,
    "BodyPartExamined": "HEAD",
    "ConsistencyInfo": "N4_VD13A_LATEST_20120616",
    "ConversionSoftware": "dcm2niix",
    "ConversionSoftwareVersion": "v1.0.20181125  GCC6.3.0",
    "DerivedVendorReportedEchoSpacing": 0.000650012,
    "DeviceSerialNumber": "45250",
    "DwellTime": 4.6e-06,
    "EchoTime": 0.033,
    "EchoTrainLength": 64,
    "EffectiveEchoSpacing": 0.000650012,
    "FlipAngle": 90,
    "ImageOrientationPatientDICOM": [
      0.999146,
      0.0163405,
      -0.0379604,
      -0.0226737,
      0.984674,
      -0.172924
    ],
    "ImageType": [
      "ORIGINAL",
      "PRIMARY",
      "M",
      "ND",
      "NORM",
      "MOSAIC"
    ],
    "ImagingFrequency": 123.214,
    "InPlanePhaseEncodingDirectionDICOM": "COL",
    "InstitutionAddress": "Kopernikusstr._26_Graz_Graz_AT_8010",
    "InstitutionName": "KFU",
    "InstitutionalDepartmentName": "Department",
    "MRAcquisitionType": "2D",
    "MagneticFieldStrength": 3,
    "Manufacturer": "Siemens",
    "ManufacturersModelName": "Skyra",
    "Modality": "MR",
    "PartialFourier": 1,
    "PatientPosition": "HFS",
    "PercentPhaseFOV": 100,
    "PhaseEncodingDirection": "j-",
    "PhaseEncodingSteps": 64,
    "PhaseResolution": 1,
    "PixelBandwidth": 1700,
    "ProcedureStepDescription": "KFU_Entw-Psy",
    "ProtocolName": "fMRI_3",
    "PulseSequenceDetails": "%SiemensSeq%_ep2d_pace",
    "ReceiveCoilActiveElements": "HE1-4",
    "ReceiveCoilName": "HeadNeck_20",
    "ReconMatrixPE": 64,
    "RepetitionTime": 2.34,
    "SAR": 0.171705,
    "ScanOptions": "FS",
    "ScanningSequence": "EP",
    "SequenceName": "_epfid2d1_64",
    "SequenceVariant": "SK",
    "SeriesDescription": "fMRI_3",
    "SeriesNumber": 8,
    "ShimSetting": [
      -1595,
      -3634,
      -4353,
      375,
      379,
      -95,
      -165,
      -198
    ],
    "SliceThickness": 3,
    "SliceTiming": [
      2.2525,
      2.185,
      2.115,
      2.0475,
      1.98,
      1.91,
      1.8425,
      1.775,
      1.7075,
      1.6375,
      1.57,
      1.5025,
      1.4325,
      1.365,
      1.2975,
      1.23,
      1.16,
      1.0925,
      1.025,
      0.955,
      0.8875,
      0.82,
      0.75,
      0.6825,
      0.615,
      0.5475,
      0.4775,
      0.41,
      0.3425,
      0.2725,
      0.205,
      0.1375,
      0.07,
      0
    ],
    "SoftwareVersions": "syngo_MR_D13",
    "SpacingBetweenSlices": 3.3,
    "StationName": "FBMTMR1",
    "TaskName": "read",
    "TotalReadoutTime": 0.0409508,
    "TxRefAmp": 323.697,
    "dataset": "ds003126",
    "dcmmeta_affine": [
      [
        -2.997437000274658,
        -0.06802113354206085,
        -0.11402487754821777,
        96.58639526367188
      ],
      [
        -0.04902155324816704,
        2.9540226459503174,
        -0.573000431060791,
        -104.92414855957031
      ],
      [
        -0.11388128250837326,
        0.5187706351280212,
        3.2478713989257812,
        -12.115497589111328
      ],
      [
        0.0,
        0.0,
        0.0,
        1.0
      ]
    ],
    "dcmmeta_reorient_transform": [
      [
        0.0,
        -1.0,
        0.0,
        63.0
      ],
      [
        1.0,
        0.0,
        0.0,
        0.0
      ],
      [
        0.0,
        0.0,
        1.0,
        0.0
      ],
      [
        0.0,
        0.0,
        0.0,
        1.0
      ]
    ],
    "dcmmeta_shape": [
      64,
      64,
      34,
      127
    ],
    "dcmmeta_slice_dim": 2,
    "dcmmeta_version": 0.6,
    "global": {
      "const": {
        "AcquisitionMatrix": [
          64,
          0,
          0,
          64
        ],
        "AngioFlag": "N",
        "BitsAllocated": 16,
        "BitsStored": 12,
        "BodyPartExamined": "HEAD",
        "Columns": 384,
        "EchoNumbers": 1,
        "EchoTime": 33.0,
        "EchoTrainLength": 64,
        "FlipAngle": 90.0,
        "HighBit": 11,
        "ImageOrientationPatient": [
          0.99914563173285,
          0.01634051788923,
          -0.0379604276092,
          -0.0226737102077,
          0.98467423653098,
          -0.1729235402643
        ],
        "ImagePositionPatient": [
          -561.00758796505,
          -561.66636385671,
          121.79135569045
        ],
        "ImageType": [
          "ORIGINAL",
          "PRIMARY",
          "M",
          "ND",
          "NORM",
          "MOSAIC"
        ],
        "ImagedNucleus": "1H",
        "ImagingFrequency": 123.214427,
        "InPlanePhaseEncodingDirection": "COL",
        "MRAcquisitionType": "2D",
        "MagneticFieldStrength": 3.0,
        "Manufacturer": "SIEMENS",
        "ManufacturerModelName": "Skyra",
        "Modality": "MR",
        "NumberOfAverages": 1.0,
        "NumberOfPhaseEncodingSteps": 64,
        "PercentPhaseFieldOfView": 100.0,
        "PercentSampling": 100.0,
        "PerformedProcedureStepStartTime": "113148.677000",
        "PhotometricInterpretation": "MONOCHROME2",
        "PixelBandwidth": 1700.0,
        "PixelRepresentation": 0,
        "PixelSpacing": [
          3.0,
          3.0
        ],
        "ProtocolName": "fMRI_3",
        "RepetitionTime": 2340.0,
        "Rows": 384,
        "SAR": 0.17170543992528,
        "SamplesPerPixel": 1,
        "ScanOptions": "FS",
        "ScanningSequence": "EP",
        "SequenceName": "*epfid2d1_64",
        "SequenceVariant": "SK",
        "SeriesDescription": "fMRI_3",
        "SeriesNumber": 8,
        "SeriesTime": "115101.407000",
        "SliceLocation": 2.9571980186686,
        "SliceThickness": 3.0,
        "SmallestImagePixelValue": 0,
        "SoftwareVersions": "syngo MR D13",
        "SpacingBetweenSlices": 3.2999999393719,
        "SpecificCharacterSet": "ISO_IR 100",
        "StudyID": "1",
        "StudyTime": "113148.621000",
        "TransmitCoilName": "Body",
        "VariableFlipAngleFlag": "N",
        "WindowCenterWidthExplanation": "Algo1",
        "dBdt": 0.0
      },
      "slices": {}
    },
    "modality": "bold",
    "run_id": 3,
    "session_id": "2",
    "subject_id": "047EPKL013023",
    "task_id": "read",
    "time": {
      "samples": {
        "AcquisitionNumber": [
          1,
          2,
          3,
          4,
          5,
          6,
          7,
          8,
          9,
          10,
          11,
          12,
          13,
          14,
          15,
          16,
          17,
          18,
          19,
          20,
          21,
          22,
          23,
          24,
          25,
          26,
          27,
          28,
          29,
          30,
          31,
          32,
          33,
          34,
          35,
          36,
          37,
          38,
          39,
          40,
          41,
          42,
          43,
          44,
          45,
          46,
          47,
          48,
          49,
          50,
          51,
          52,
          53,
          54,
          55,
          56,
          57,
          58,
          59,
          60,
          61,
          62,
          63,
          64,
          65,
          66,
          67,
          68,
          69,
          70,
          71,
          72,
          73,
          74,
          75,
          76,
          77,
          78,
          79,
          80,
          81,
          82,
          83,
          84,
          85,
          86,
          87,
          88,
          89,
          90,
          91,
          92,
          93,
          94,
          95,
          96,
          97,
          98,
          99,
          100,
          101,
          102,
          103,
          104,
          105,
          106,
          107,
          108,
          109,
          110,
          111,
          112,
          113,
          114,
          115,
          116,
          117,
          118,
          119,
          120,
          121,
          122,
          123,
          124,
          125,
          126,
          127
        ],
        "AcquisitionTime": [
          "115010.057500",
          "115012.397500",
          "115014.737500",
          "115017.077500",
          "115019.417500",
          "115021.757500",
          "115024.097500",
          "115026.437500",
          "115028.777500",
          "115031.117500",
          "115033.457500",
          "115035.797500",
          "115038.137500",
          "115040.477500",
          "115042.817500",
          "115045.157500",
          "115047.497500",
          "115049.837500",
          "115052.177500",
          "115054.517500",
          "115056.857500",
          "115059.197500",
          "115101.537500",
          "115103.877500",
          "115106.217500",
          "115108.557500",
          "115110.897500",
          "115113.237500",
          "115115.577500",
          "115117.917500",
          "115120.257500",
          "115122.597500",
          "115124.937500",
          "115127.277500",
          "115129.617500",
          "115131.957500",
          "115134.297500",
          "115136.637500",
          "115138.977500",
          "115141.317500",
          "115143.657500",
          "115145.997500",
          "115148.337500",
          "115150.677500",
          "115153.017500",
          "115155.357500",
          "115157.697500",
          "115200.037500",
          "115202.377500",
          "115204.717500",
          "115207.057500",
          "115209.397500",
          "115211.737500",
          "115214.077500",
          "115216.417500",
          "115218.757500",
          "115221.097500",
          "115223.437500",
          "115225.777500",
          "115228.117500",
          "115230.457500",
          "115232.797500",
          "115235.137500",
          "115237.477500",
          "115239.817500",
          "115242.157500",
          "115244.497500",
          "115246.837500",
          "115249.177500",
          "115251.517500",
          "115253.857500",
          "115256.197500",
          "115258.537500",
          "115300.877500",
          "115303.217500",
          "115305.557500",
          "115307.897500",
          "115310.237500",
          "115312.577500",
          "115314.917500",
          "115317.257500",
          "115319.597500",
          "115321.937500",
          "115324.277500",
          "115326.617500",
          "115328.957500",
          "115331.297500",
          "115333.637500",
          "115335.977500",
          "115338.317500",
          "115340.657500",
          "115342.997500",
          "115345.337500",
          "115347.677500",
          "115350.017500",
          "115352.357500",
          "115354.697500",
          "115357.037500",
          "115359.377500",
          "115401.717500",
          "115404.057500",
          "115406.397500",
          "115408.737500",
          "115411.077500",
          "115413.417500",
          "115415.757500",
          "115418.097500",
          "115420.437500",
          "115422.777500",
          "115425.117500",
          "115427.457500",
          "115429.797500",
          "115432.137500",
          "115434.477500",
          "115436.817500",
          "115439.157500",
          "115441.497500",
          "115443.837500",
          "115446.177500",
          "115448.517500",
          "115450.857500",
          "115453.197500",
          "115455.537500",
          "115457.877500",
          "115500.217500",
          "115502.557500",
          "115504.897500"
        ],
        "ContentTime": [
          "115101.412000",
          "115101.416000",
          "115101.419000",
          "115101.427000",
          "115101.430000",
          "115101.433000",
          "115101.435000",
          "115101.438000",
          "115101.441000",
          "115101.443000",
          "115101.452000",
          "115101.455000",
          "115101.458000",
          "115101.460000",
          "115101.463000",
          "115101.466000",
          "115101.469000",
          "115101.472000",
          "115101.474000",
          "115101.477000",
          "115101.480000",
          "115101.483000",
          "115201.406000",
          "115201.410000",
          "115201.412000",
          "115201.415000",
          "115201.418000",
          "115201.421000",
          "115201.423000",
          "115201.426000",
          "115201.429000",
          "115201.432000",
          "115201.435000",
          "115201.438000",
          "115201.440000",
          "115201.443000",
          "115201.446000",
          "115201.449000",
          "115201.452000",
          "115201.455000",
          "115201.458000",
          "115201.460000",
          "115201.463000",
          "115201.466000",
          "115201.469000",
          "115201.472000",
          "115201.475000",
          "115201.477000",
          "115301.406000",
          "115301.410000",
          "115301.412000",
          "115301.415000",
          "115301.418000",
          "115301.420000",
          "115301.423000",
          "115301.426000",
          "115301.428000",
          "115301.431000",
          "115301.434000",
          "115301.437000",
          "115301.440000",
          "115301.443000",
          "115301.446000",
          "115301.448000",
          "115301.451000",
          "115301.454000",
          "115301.457000",
          "115301.460000",
          "115301.463000",
          "115301.466000",
          "115301.468000",
          "115301.471000",
          "115301.474000",
          "115401.407000",
          "115401.411000",
          "115401.413000",
          "115401.416000",
          "115401.419000",
          "115401.422000",
          "115401.425000",
          "115401.427000",
          "115401.430000",
          "115401.433000",
          "115401.436000",
          "115401.439000",
          "115401.442000",
          "115401.444000",
          "115401.447000",
          "115401.451000",
          "115401.454000",
          "115401.457000",
          "115401.460000",
          "115401.462000",
          "115401.465000",
          "115401.467000",
          "115401.470000",
          "115401.473000",
          "115401.476000",
          "115401.479000",
          "115501.407000",
          "115501.410000",
          "115501.413000",
          "115501.416000",
          "115501.419000",
          "115501.422000",
          "115501.424000",
          "115501.427000",
          "115501.430000",
          "115501.433000",
          "115501.436000",
          "115501.439000",
          "115501.442000",
          "115501.444000",
          "115501.447000",
          "115501.450000",
          "115501.453000",
          "115501.456000",
          "115501.458000",
          "115501.461000",
          "115501.464000",
          "115501.466000",
          "115501.469000",
          "115501.472000",
          "115501.474000",
          "115501.477000",
          "115506.866000",
          "115506.869000"
        ],
        "InstanceCreationTime": [
          "115101.412000",
          "115101.416000",
          "115101.419000",
          "115101.427000",
          "115101.430000",
          "115101.433000",
          "115101.435000",
          "115101.438000",
          "115101.441000",
          "115101.443000",
          "115101.452000",
          "115101.455000",
          "115101.458000",
          "115101.460000",
          "115101.463000",
          "115101.466000",
          "115101.469000",
          "115101.472000",
          "115101.474000",
          "115101.477000",
          "115101.480000",
          "115101.483000",
          "115201.406000",
          "115201.410000",
          "115201.412000",
          "115201.415000",
          "115201.418000",
          "115201.421000",
          "115201.423000",
          "115201.426000",
          "115201.429000",
          "115201.432000",
          "115201.435000",
          "115201.438000",
          "115201.440000",
          "115201.443000",
          "115201.446000",
          "115201.449000",
          "115201.452000",
          "115201.455000",
          "115201.458000",
          "115201.460000",
          "115201.463000",
          "115201.466000",
          "115201.469000",
          "115201.472000",
          "115201.475000",
          "115201.477000",
          "115301.406000",
          "115301.410000",
          "115301.412000",
          "115301.415000",
          "115301.418000",
          "115301.420000",
          "115301.423000",
          "115301.426000",
          "115301.428000",
          "115301.431000",
          "115301.434000",
          "115301.437000",
          "115301.440000",
          "115301.443000",
          "115301.446000",
          "115301.448000",
          "115301.451000",
          "115301.454000",
          "115301.457000",
          "115301.460000",
          "115301.463000",
          "115301.466000",
          "115301.468000",
          "115301.471000",
          "115301.474000",
          "115401.407000",
          "115401.411000",
          "115401.413000",
          "115401.416000",
          "115401.419000",
          "115401.422000",
          "115401.425000",
          "115401.427000",
          "115401.430000",
          "115401.433000",
          "115401.436000",
          "115401.439000",
          "115401.442000",
          "115401.444000",
          "115401.447000",
          "115401.451000",
          "115401.454000",
          "115401.457000",
          "115401.460000",
          "115401.462000",
          "115401.465000",
          "115401.467000",
          "115401.470000",
          "115401.473000",
          "115401.476000",
          "115401.479000",
          "115501.407000",
          "115501.410000",
          "115501.413000",
          "115501.416000",
          "115501.419000",
          "115501.422000",
          "115501.424000",
          "115501.427000",
          "115501.430000",
          "115501.433000",
          "115501.436000",
          "115501.439000",
          "115501.442000",
          "115501.444000",
          "115501.447000",
          "115501.450000",
          "115501.453000",
          "115501.456000",
          "115501.458000",
          "115501.461000",
          "115501.464000",
          "115501.466000",
          "115501.469000",
          "115501.472000",
          "115501.474000",
          "115501.477000",
          "115506.866000",
          "115506.869000"
        ],
        "InstanceNumber": [
          1,
          2,
          3,
          4,
          5,
          6,
          7,
          8,
          9,
          10,
          11,
          12,
          13,
          14,
          15,
          16,
          17,
          18,
          19,
          20,
          21,
          22,
          23,
          24,
          25,
          26,
          27,
          28,
          29,
          30,
          31,
          32,
          33,
          34,
          35,
          36,
          37,
          38,
          39,
          40,
          41,
          42,
          43,
          44,
          45,
          46,
          47,
          48,
          49,
          50,
          51,
          52,
          53,
          54,
          55,
          56,
          57,
          58,
          59,
          60,
          61,
          62,
          63,
          64,
          65,
          66,
          67,
          68,
          69,
          70,
          71,
          72,
          73,
          74,
          75,
          76,
          77,
          78,
          79,
          80,
          81,
          82,
          83,
          84,
          85,
          86,
          87,
          88,
          89,
          90,
          91,
          92,
          93,
          94,
          95,
          96,
          97,
          98,
          99,
          100,
          101,
          102,
          103,
          104,
          105,
          106,
          107,
          108,
          109,
          110,
          111,
          112,
          113,
          114,
          115,
          116,
          117,
          118,
          119,
          120,
          121,
          122,
          123,
          124,
          125,
          126,
          127
        ],
        "LargestImagePixelValue": [
          1773,
          1794,
          1818,
          1903,
          1913,
          2036,
          2078,
          1841,
          1719,
          1746,
          1783,
          1742,
          1768,
          1876,
          1765,
          2166,
          1775,
          1775,
          1770,
          1771,
          1755,
          1709,
          1962,
          1758,
          1734,
          1762,
          1791,
          1693,
          1747,
          1696,
          1854,
          2437,
          1816,
          2000,
          1888,
          2092,
          1705,
          1768,
          1732,
          1780,
          1847,
          1842,
          1771,
          1927,
          1977,
          2200,
          1946,
          1730,
          1775,
          1810,
          1772,
          2098,
          1846,
          1704,
          1746,
          1829,
          1705,
          1733,
          1807,
          1927,
          1737,
          1919,
          2048,
          1838,
          1845,
          1750,
          1862,
          1775,
          1884,
          1733,
          1858,
          1911,
          1811,
          1729,
          1800,
          1973,
          1917,
          1730,
          1767,
          1719,
          1781,
          1900,
          1718,
          1770,
          1789,
          1838,
          1720,
          2020,
          1839,
          1716,
          1824,
          1949,
          1955,
          1876,
          1747,
          1778,
          1735,
          1764,
          2066,
          1910,
          1715,
          1782,
          1792,
          1958,
          1782,
          1747,
          1800,
          1872,
          1778,
          1777,
          1832,
          1800,
          1930,
          1761,
          1833,
          1752,
          1728,
          1773,
          2056,
          2023,
          2032,
          1841,
          1848,
          1915,
          1791,
          1820,
          1845
        ],
        "WindowCenter": [
          813.0,
          812.0,
          812.0,
          812.0,
          813.0,
          811.0,
          809.0,
          809.0,
          809.0,
          810.0,
          811.0,
          815.0,
          813.0,
          816.0,
          811.0,
          812.0,
          810.0,
          811.0,
          811.0,
          813.0,
          812.0,
          812.0,
          811.0,
          812.0,
          811.0,
          812.0,
          810.0,
          809.0,
          811.0,
          814.0,
          812.0,
          813.0,
          809.0,
          811.0,
          810.0,
          811.0,
          811.0,
          813.0,
          812.0,
          814.0,
          813.0,
          813.0,
          811.0,
          816.0,
          813.0,
          812.0,
          812.0,
          811.0,
          813.0,
          814.0,
          815.0,
          815.0,
          814.0,
          814.0,
          813.0,
          814.0,
          811.0,
          814.0,
          815.0,
          815.0,
          816.0,
          819.0,
          816.0,
          819.0,
          815.0,
          814.0,
          814.0,
          813.0,
          815.0,
          814.0,
          815.0,
          814.0,
          814.0,
          815.0,
          815.0,
          815.0,
          816.0,
          814.0,
          816.0,
          815.0,
          813.0,
          815.0,
          813.0,
          816.0,
          815.0,
          815.0,
          814.0,
          815.0,
          814.0,
          816.0,
          815.0,
          814.0,
          818.0,
          817.0,
          815.0,
          814.0,
          812.0,
          813.0,
          813.0,
          812.0,
          812.0,
          815.0,
          811.0,
          815.0,
          812.0,
          814.0,
          814.0,
          817.0,
          815.0,
          816.0,
          817.0,
          816.0,
          816.0,
          815.0,
          813.0,
          814.0,
          817.0,
          818.0,
          818.0,
          818.0,
          815.0,
          816.0,
          816.0,
          817.0,
          815.0,
          815.0,
          814.0
        ],
        "WindowWidth": [
          1719.0,
          1716.0,
          1717.0,
          1717.0,
          1717.0,
          1714.0,
          1709.0,
          1707.0,
          1709.0,
          1711.0,
          1715.0,
          1722.0,
          1716.0,
          1727.0,
          1714.0,
          1717.0,
          1713.0,
          1714.0,
          1714.0,
          1718.0,
          1717.0,
          1716.0,
          1713.0,
          1718.0,
          1713.0,
          1716.0,
          1712.0,
          1709.0,
          1714.0,
          1721.0,
          1718.0,
          1720.0,
          1709.0,
          1713.0,
          1712.0,
          1714.0,
          1714.0,
          1718.0,
          1716.0,
          1721.0,
          1718.0,
          1720.0,
          1717.0,
          1724.0,
          1719.0,
          1716.0,
          1716.0,
          1715.0,
          1719.0,
          1721.0,
          1724.0,
          1724.0,
          1721.0,
          1721.0,
          1719.0,
          1720.0,
          1714.0,
          1723.0,
          1723.0,
          1723.0,
          1726.0,
          1732.0,
          1724.0,
          1736.0,
          1725.0,
          1722.0,
          1722.0,
          1721.0,
          1725.0,
          1724.0,
          1723.0,
          1722.0,
          1723.0,
          1722.0,
          1724.0,
          1724.0,
          1725.0,
          1721.0,
          1727.0,
          1723.0,
          1718.0,
          1724.0,
          1720.0,
          1727.0,
          1724.0,
          1725.0,
          1722.0,
          1724.0,
          1721.0,
          1727.0,
          1724.0,
          1725.0,
          1730.0,
          1729.0,
          1724.0,
          1722.0,
          1717.0,
          1719.0,
          1718.0,
          1717.0,
          1715.0,
          1723.0,
          1713.0,
          1726.0,
          1717.0,
          1721.0,
          1721.0,
          1729.0,
          1724.0,
          1728.0,
          1730.0,
          1726.0,
          1728.0,
          1724.0,
          1719.0,
          1722.0,
          1729.0,
          1732.0,
          1732.0,
          1733.0,
          1725.0,
          1727.0,
          1727.0,
          1730.0,
          1726.0,
          1724.0,
          1723.0
        ]
      },
      "slices": {}
    }
  },
  "dummy_trs": 0,
  "dvars_nstd": 35.11179400190477,
  "dvars_std": 1.3772528591269837,
  "dvars_vstd": 1.0768285649206348,
  "efc": 0.581758882486039,
  "fber": 1648.438720703125,
  "fd_mean": 0.4270998818801566,
  "fd_num": 94,
  "fd_perc": 74.01574803149606,
  "fwhm_avg": 1.6210220275506397,
  "fwhm_x": 1.5253333333333332,
  "fwhm_y": 1.8120266666666665,
  "fwhm_z": 1.52570608265192,
  "gcor": 0.061597,
  "gsr_x": -0.0027619090396910906,
  "gsr_y": 0.040035393089056015,
  "provenance": {
    "md5sum": "0e4c435bdc8caf27224e3d2452918e90",
    "settings": {
      "fd_thres": 0.2,
      "testing": false
    },
    "software": "mriqc",
    "version": "22.0.1",
    "webapi_port": null,
    "webapi_url": "https://mriqc.nimh.nih.gov/api/v1"
  },
  "size_t": 127,
  "size_x": 64,
  "size_y": 64,
  "size_z": 34,
  "snr": 6.938504043181416,
  "spacing_tr": 2.3399999141693115,
  "spacing_x": 3.0,
  "spacing_y": 3.0,
  "spacing_z": 3.299999952316284,
  "summary_bg_k": 39.963729856623104,
  "summary_bg_mad": 10.09803957289984,
  "summary_bg_mean": 38.607975006103516,
  "summary_bg_median": 22.488189697265625,
  "summary_bg_n": 70938.0,
  "summary_bg_p05": 12.409448623657227,
  "summary_bg_p95": 119.83386077880832,
  "summary_bg_stdv": 54.78275680541992,
  "summary_fg_k": 3.1084789626404525,
  "summary_fg_mad": 127.29367101905927,
  "summary_fg_mean": 936.3740844726562,
  "summary_fg_median": 932.287353515625,
  "summary_fg_n": 35840.0,
  "summary_fg_p05": 746.9043365478516,
  "summary_fg_p95": 1139.599963378906,
  "summary_fg_stdv": 134.36244201660156,
  "tsnr": 57.01499618589878
}