{
  "aor": 0.004797307692307692,
  "aqi": 0.01533139746153846,
  "bids_meta": {
    "AcquisitionMatrixPE": 64,
    "AcquisitionNumber": 1,
    "AcquisitionTime": "13:28:45.942500",
    "BandwidthPerPixelPhaseEncode": 24.038,
    "BaseResolution": 64,
    "BodyPartExamined": "HEAD",
    "ConsistencyInfo": "N4_VD13A_LATEST_20120616",
    "ConversionSoftware": "dcm2niix",
    "ConversionSoftwareVersion": "v1.0.20181125  GCC6.3.0",
    "DerivedVendorReportedEchoSpacing": 0.000650012,
    "DeviceSerialNumber": "45250",
    "DwellTime": 4.6e-06,
    "EchoTime": 0.033,
    "EchoTrainLength": 64,
    "EffectiveEchoSpacing": 0.000650012,
    "FlipAngle": 90,
    "ImageOrientationPatientDICOM": [
      0.995932,
      -0.049617,
      -0.0752216,
      0.0417419,
      0.993818,
      -0.102872
    ],
    "ImageType": [
      "ORIGINAL",
      "PRIMARY",
      "M",
      "ND",
      "NORM",
      "MOSAIC"
    ],
    "ImagingFrequency": 123.214,
    "InPlanePhaseEncodingDirectionDICOM": "COL",
    "InstitutionAddress": "Kopernikusstr._26_Graz_Graz_AT_8010",
    "InstitutionName": "KFU",
    "InstitutionalDepartmentName": "Department",
    "MRAcquisitionType": "2D",
    "MagneticFieldStrength": 3,
    "Manufacturer": "Siemens",
    "ManufacturersModelName": "Skyra",
    "Modality": "MR",
    "PartialFourier": 1,
    "PatientPosition": "HFS",
    "PercentPhaseFOV": 100,
    "PhaseEncodingDirection": "j-",
    "PhaseEncodingSteps": 64,
    "PhaseResolution": 1,
    "PixelBandwidth": 1700,
    "ProcedureStepDescription": "KFU_Entw-Psy",
    "ProtocolName": "fMRI_1",
    "PulseSequenceDetails": "%SiemensSeq%_ep2d_pace",
    "ReceiveCoilActiveElements": "HE1-4",
    "ReceiveCoilName": "HeadNeck_20",
    "ReconMatrixPE": 64,
    "RepetitionTime": 2.34,
    "SAR": 0.177878,
    "ScanOptions": "FS",
    "ScanningSequence": "EP",
    "SequenceName": "_epfid2d1_64",
    "SequenceVariant": "SK",
    "SeriesDescription": "fMRI_1",
    "SeriesNumber": 12,
    "ShimSetting": [
      -1626,
      -3765,
      -4328,
      355,
      484,
      56,
      10,
      -393
    ],
    "SliceThickness": 3,
    "SliceTiming": [
      2.2525,
      2.185,
      2.115,
      2.0475,
      1.98,
      1.9125,
      1.8425,
      1.775,
      1.7075,
      1.6375,
      1.57,
      1.5025,
      1.435,
      1.365,
      1.2975,
      1.23,
      1.16,
      1.0925,
      1.025,
      0.955,
      0.8875,
      0.82,
      0.7525,
      0.6825,
      0.615,
      0.5475,
      0.4775,
      0.41,
      0.3425,
      0.275,
      0.205,
      0.1375,
      0.07,
      0
    ],
    "SoftwareVersions": "syngo_MR_D13",
    "SpacingBetweenSlices": 3.3,
    "StationName": "FBMTMR1",
    "TaskName": "read",
    "TotalReadoutTime": 0.0409508,
    "TxRefAmp": 324.106,
    "dataset": "ds003126",
    "dcmmeta_affine": [
      [
        -2.987794876098633,
        0.12522566318511963,
        -0.2635405957698822,
        90.77809143066406
      ],
      [
        0.1488509327173233,
        2.981455087661743,
        -0.32773497700691223,
        -111.71552276611328
      ],
      [
        -0.22566474974155426,
        0.30861613154411316,
        3.273092746734619,
        -15.88368034362793
      ],
      [
        0.0,
        0.0,
        0.0,
        1.0
      ]
    ],
    "dcmmeta_reorient_transform": [
      [
        0.0,
        -1.0,
        0.0,
        63.0
      ],
      [
        1.0,
        0.0,
        0.0,
        0.0
      ],
      [
        0.0,
        0.0,
        1.0,
        0.0
      ],
      [
        0.0,
        0.0,
        0.0,
        1.0
      ]
    ],
    "dcmmeta_shape": [
      64,
      64,
      34,
      130
    ],
    "dcmmeta_slice_dim": 2,
    "dcmmeta_version": 0.6,
    "global": {
      "const": {
        "AcquisitionMatrix": [
          64,
          0,
          0,
          64
        ],
        "AngioFlag": "N",
        "BitsAllocated": 16,
        "BitsStored": 12,
        "BodyPartExamined": "HEAD",
        "Columns": 384,
        "EchoNumbers": 1,
        "EchoTime": 33.0,
        "EchoTrainLength": 64,
        "FlipAngle": 90.0,
        "HighBit": 11,
        "ImageOrientationPatient": [
          0.99593165886159,
          -0.0496169790441,
          -0.0752215811303,
          0.0417418876146,
          0.99381837220085,
          -0.1028720462245
        ],
        "ImagePositionPatient": [
          -596.75060710842,
          -529.33281511087,
          89.044077069057
        ],
        "ImageType": [
          "ORIGINAL",
          "PRIMARY",
          "M",
          "ND",
          "NORM",
          "MOSAIC"
        ],
        "ImagedNucleus": "1H",
        "ImagingFrequency": 123.214365,
        "InPlanePhaseEncodingDirection": "COL",
        "MRAcquisitionType": "2D",
        "MagneticFieldStrength": 3.0,
        "Manufacturer": "SIEMENS",
        "ManufacturerModelName": "Skyra",
        "Modality": "MR",
        "NumberOfAverages": 1.0,
        "NumberOfPhaseEncodingSteps": 64,
        "PercentPhaseFieldOfView": 100.0,
        "PercentSampling": 100.0,
        "PerformedProcedureStepStartTime": "124000.175000",
        "PhotometricInterpretation": "MONOCHROME2",
        "PixelBandwidth": 1700.0,
        "PixelRepresentation": 0,
        "PixelSpacing": [
          3.0,
          3.0
        ],
        "ProtocolName": "fMRI_1",
        "RepetitionTime": 2340.0,
        "Rows": 384,
        "SAR": 0.1778779272083,
        "SamplesPerPixel": 1,
        "ScanOptions": "FS",
        "ScanningSequence": "EP",
        "SequenceName": "*epfid2d1_64",
        "SequenceVariant": "SK",
        "SeriesDescription": "fMRI_1",
        "SeriesNumber": 12,
        "SeriesTime": "132933.029000",
        "SliceLocation": -11.908904415447,
        "SliceThickness": 3.0,
        "SmallestImagePixelValue": 0,
        "SoftwareVersions": "syngo MR D13",
        "SpacingBetweenSlices": 3.2999998982131,
        "SpecificCharacterSet": "ISO_IR 100",
        "StudyID": "1",
        "StudyTime": "124000.111000",
        "TransmitCoilName": "Body",
        "VariableFlipAngleFlag": "N",
        "WindowCenterWidthExplanation": "Algo1",
        "dBdt": 0.0
      },
      "slices": {}
    },
    "modality": "bold",
    "run_id": 1,
    "session_id": "2",
    "subject_id": "047EPKL012017",
    "task_id": "read",
    "time": {
      "samples": {
        "AcquisitionNumber": [
          1,
          2,
          3,
          4,
          5,
          6,
          7,
          8,
          9,
          10,
          11,
          12,
          13,
          14,
          15,
          16,
          17,
          18,
          19,
          20,
          21,
          22,
          23,
          24,
          25,
          26,
          27,
          28,
          29,
          30,
          31,
          32,
          33,
          34,
          35,
          36,
          37,
          38,
          39,
          40,
          41,
          42,
          43,
          44,
          45,
          46,
          47,
          48,
          49,
          50,
          51,
          52,
          53,
          54,
          55,
          56,
          57,
          58,
          59,
          60,
          61,
          62,
          63,
          64,
          65,
          66,
          67,
          68,
          69,
          70,
          71,
          72,
          73,
          74,
          75,
          76,
          77,
          78,
          79,
          80,
          81,
          82,
          83,
          84,
          85,
          86,
          87,
          88,
          89,
          90,
          91,
          92,
          93,
          94,
          95,
          96,
          97,
          98,
          99,
          100,
          101,
          102,
          103,
          104,
          105,
          106,
          107,
          108,
          109,
          110,
          111,
          112,
          113,
          114,
          115,
          116,
          117,
          118,
          119,
          120,
          121,
          122,
          123,
          124,
          125,
          126,
          127,
          128,
          129,
          130
        ],
        "AcquisitionTime": [
          "132845.942500",
          "132848.282500",
          "132850.622500",
          "132852.962500",
          "132855.302500",
          "132857.642500",
          "132859.982500",
          "132902.322500",
          "132904.662500",
          "132907.002500",
          "132909.342500",
          "132911.682500",
          "132914.022500",
          "132916.362500",
          "132918.702500",
          "132921.042500",
          "132923.382500",
          "132925.722500",
          "132928.062500",
          "132930.402500",
          "132932.742500",
          "132935.082500",
          "132937.422500",
          "132939.762500",
          "132942.102500",
          "132944.442500",
          "132946.782500",
          "132949.122500",
          "132951.462500",
          "132953.802500",
          "132956.142500",
          "132958.482500",
          "133000.822500",
          "133003.162500",
          "133005.502500",
          "133007.842500",
          "133010.182500",
          "133012.522500",
          "133014.862500",
          "133017.202500",
          "133019.542500",
          "133021.882500",
          "133024.222500",
          "133026.562500",
          "133028.902500",
          "133031.242500",
          "133033.582500",
          "133035.922500",
          "133038.262500",
          "133040.602500",
          "133042.942500",
          "133045.282500",
          "133047.622500",
          "133049.962500",
          "133052.302500",
          "133054.642500",
          "133056.982500",
          "133059.322500",
          "133101.662500",
          "133104.002500",
          "133106.342500",
          "133108.682500",
          "133111.022500",
          "133113.362500",
          "133115.702500",
          "133118.042500",
          "133120.382500",
          "133122.722500",
          "133125.062500",
          "133127.402500",
          "133129.742500",
          "133132.082500",
          "133134.422500",
          "133136.762500",
          "133139.102500",
          "133141.442500",
          "133143.782500",
          "133146.122500",
          "133148.462500",
          "133150.802500",
          "133153.142500",
          "133155.482500",
          "133157.822500",
          "133200.162500",
          "133202.502500",
          "133204.842500",
          "133207.182500",
          "133209.522500",
          "133211.862500",
          "133214.202500",
          "133216.542500",
          "133218.882500",
          "133221.222500",
          "133223.562500",
          "133225.902500",
          "133228.242500",
          "133230.582500",
          "133232.922500",
          "133235.262500",
          "133237.602500",
          "133239.942500",
          "133242.282500",
          "133244.622500",
          "133246.962500",
          "133249.302500",
          "133251.642500",
          "133253.982500",
          "133256.322500",
          "133258.662500",
          "133301.002500",
          "133303.342500",
          "133305.682500",
          "133308.022500",
          "133310.362500",
          "133312.702500",
          "133315.042500",
          "133317.382500",
          "133319.722500",
          "133322.062500",
          "133324.402500",
          "133326.742500",
          "133329.082500",
          "133331.422500",
          "133333.762500",
          "133336.102500",
          "133338.442500",
          "133340.782500",
          "133343.122500",
          "133345.462500",
          "133347.802500"
        ],
        "ContentTime": [
          "132933.064000",
          "132933.069000",
          "132933.072000",
          "132933.077000",
          "132933.080000",
          "132933.086000",
          "132933.089000",
          "132933.092000",
          "132933.095000",
          "132933.098000",
          "132933.100000",
          "132933.103000",
          "132933.106000",
          "132933.109000",
          "132933.115000",
          "132933.119000",
          "132933.122000",
          "132933.124000",
          "132933.127000",
          "132933.130000",
          "133033.026000",
          "133033.036000",
          "133033.039000",
          "133033.042000",
          "133033.044000",
          "133033.047000",
          "133033.050000",
          "133033.053000",
          "133033.055000",
          "133033.058000",
          "133033.061000",
          "133033.064000",
          "133033.066000",
          "133033.069000",
          "133033.072000",
          "133033.075000",
          "133033.078000",
          "133033.081000",
          "133033.084000",
          "133033.087000",
          "133033.090000",
          "133033.092000",
          "133033.095000",
          "133033.098000",
          "133033.100000",
          "133033.103000",
          "133133.027000",
          "133133.031000",
          "133133.034000",
          "133133.036000",
          "133133.039000",
          "133133.043000",
          "133133.046000",
          "133133.049000",
          "133133.052000",
          "133133.055000",
          "133133.057000",
          "133133.060000",
          "133133.063000",
          "133133.066000",
          "133133.068000",
          "133133.071000",
          "133133.073000",
          "133133.077000",
          "133133.079000",
          "133133.082000",
          "133133.084000",
          "133133.087000",
          "133133.090000",
          "133133.093000",
          "133133.096000",
          "133133.099000",
          "133233.026000",
          "133233.034000",
          "133233.037000",
          "133233.040000",
          "133233.043000",
          "133233.046000",
          "133233.048000",
          "133233.051000",
          "133233.054000",
          "133233.056000",
          "133233.059000",
          "133233.062000",
          "133233.065000",
          "133233.074000",
          "133233.077000",
          "133233.080000",
          "133233.082000",
          "133233.086000",
          "133233.088000",
          "133233.091000",
          "133233.094000",
          "133233.097000",
          "133233.100000",
          "133233.103000",
          "133233.106000",
          "133333.027000",
          "133333.030000",
          "133333.033000",
          "133333.040000",
          "133333.043000",
          "133333.046000",
          "133333.049000",
          "133333.052000",
          "133333.054000",
          "133333.057000",
          "133333.060000",
          "133333.063000",
          "133333.066000",
          "133333.068000",
          "133333.071000",
          "133333.074000",
          "133333.077000",
          "133333.080000",
          "133333.083000",
          "133333.085000",
          "133333.088000",
          "133333.091000",
          "133333.094000",
          "133333.097000",
          "133333.099000",
          "133333.102000",
          "133348.502000",
          "133348.505000",
          "133348.508000",
          "133348.511000",
          "133348.514000",
          "133348.517000",
          "133348.520000"
        ],
        "InstanceCreationTime": [
          "132933.064000",
          "132933.069000",
          "132933.072000",
          "132933.077000",
          "132933.080000",
          "132933.086000",
          "132933.089000",
          "132933.092000",
          "132933.095000",
          "132933.098000",
          "132933.100000",
          "132933.103000",
          "132933.106000",
          "132933.109000",
          "132933.115000",
          "132933.119000",
          "132933.122000",
          "132933.124000",
          "132933.127000",
          "132933.130000",
          "133033.026000",
          "133033.036000",
          "133033.039000",
          "133033.042000",
          "133033.044000",
          "133033.047000",
          "133033.050000",
          "133033.053000",
          "133033.055000",
          "133033.058000",
          "133033.061000",
          "133033.064000",
          "133033.066000",
          "133033.069000",
          "133033.072000",
          "133033.075000",
          "133033.078000",
          "133033.081000",
          "133033.084000",
          "133033.087000",
          "133033.090000",
          "133033.092000",
          "133033.095000",
          "133033.098000",
          "133033.100000",
          "133033.103000",
          "133133.027000",
          "133133.031000",
          "133133.034000",
          "133133.036000",
          "133133.039000",
          "133133.043000",
          "133133.046000",
          "133133.049000",
          "133133.052000",
          "133133.055000",
          "133133.057000",
          "133133.060000",
          "133133.063000",
          "133133.066000",
          "133133.068000",
          "133133.071000",
          "133133.073000",
          "133133.077000",
          "133133.079000",
          "133133.082000",
          "133133.084000",
          "133133.087000",
          "133133.090000",
          "133133.093000",
          "133133.096000",
          "133133.099000",
          "133233.026000",
          "133233.034000",
          "133233.037000",
          "133233.040000",
          "133233.043000",
          "133233.046000",
          "133233.048000",
          "133233.051000",
          "133233.054000",
          "133233.056000",
          "133233.059000",
          "133233.062000",
          "133233.065000",
          "133233.074000",
          "133233.077000",
          "133233.080000",
          "133233.082000",
          "133233.086000",
          "133233.088000",
          "133233.091000",
          "133233.094000",
          "133233.097000",
          "133233.100000",
          "133233.103000",
          "133233.106000",
          "133333.027000",
          "133333.030000",
          "133333.033000",
          "133333.040000",
          "133333.043000",
          "133333.046000",
          "133333.049000",
          "133333.052000",
          "133333.054000",
          "133333.057000",
          "133333.060000",
          "133333.063000",
          "133333.066000",
          "133333.068000",
          "133333.071000",
          "133333.074000",
          "133333.077000",
          "133333.080000",
          "133333.083000",
          "133333.085000",
          "133333.088000",
          "133333.091000",
          "133333.094000",
          "133333.097000",
          "133333.099000",
          "133333.102000",
          "133348.502000",
          "133348.505000",
          "133348.508000",
          "133348.511000",
          "133348.514000",
          "133348.517000",
          "133348.520000"
        ],
        "InstanceNumber": [
          1,
          2,
          3,
          4,
          5,
          6,
          7,
          8,
          9,
          10,
          11,
          12,
          13,
          14,
          15,
          16,
          17,
          18,
          19,
          20,
          21,
          22,
          23,
          24,
          25,
          26,
          27,
          28,
          29,
          30,
          31,
          32,
          33,
          34,
          35,
          36,
          37,
          38,
          39,
          40,
          41,
          42,
          43,
          44,
          45,
          46,
          47,
          48,
          49,
          50,
          51,
          52,
          53,
          54,
          55,
          56,
          57,
          58,
          59,
          60,
          61,
          62,
          63,
          64,
          65,
          66,
          67,
          68,
          69,
          70,
          71,
          72,
          73,
          74,
          75,
          76,
          77,
          78,
          79,
          80,
          81,
          82,
          83,
          84,
          85,
          86,
          87,
          88,
          89,
          90,
          91,
          92,
          93,
          94,
          95,
          96,
          97,
          98,
          99,
          100,
          101,
          102,
          103,
          104,
          105,
          106,
          107,
          108,
          109,
          110,
          111,
          112,
          113,
          114,
          115,
          116,
          117,
          118,
          119,
          120,
          121,
          122,
          123,
          124,
          125,
          126,
          127,
          128,
          129,
          130
        ],
        "LargestImagePixelValue": [
          2219,
          1594,
          1602,
          1882,
          1616,
          1862,
          1709,
          1585,
          1580,
          1508,
          2063,
          2240,
          2190,
          1586,
          1812,
          1564,
          1593,
          1582,
          1554,
          1675,
          1835,
          1605,
          1583,
          1632,
          1824,
          1560,
          1515,
          1578,
          1765,
          1679,
          2418,
          1618,
          1813,
          2327,
          1527,
          1528,
          1593,
          2094,
          1492,
          1867,
          1981,
          1804,
          1587,
          1616,
          1617,
          1587,
          1595,
          1732,
          1618,
          1606,
          1560,
          1642,
          1558,
          1678,
          1841,
          1614,
          2292,
          2196,
          1946,
          1674,
          2019,
          2304,
          1770,
          1640,
          1581,
          1411,
          1563,
          2090,
          2084,
          2522,
          1925,
          1883,
          1717,
          1543,
          1578,
          1597,
          1533,
          1621,
          1692,
          1623,
          1587,
          1992,
          1574,
          1995,
          2619,
          1588,
          2070,
          2006,
          1580,
          1575,
          1577,
          1722,
          1632,
          1563,
          1893,
          1596,
          1597,
          1627,
          1553,
          1540,
          1630,
          2086,
          2152,
          1610,
          2321,
          2584,
          1591,
          1566,
          1596,
          1585,
          1573,
          1599,
          2033,
          1955,
          1871,
          1603,
          1611,
          1839,
          1596,
          1623,
          1583,
          1613,
          1558,
          1615,
          2246,
          2488,
          1561,
          1599,
          1646,
          1614
        ],
        "WindowCenter": [
          689.0,
          686.0,
          685.0,
          686.0,
          686.0,
          686.0,
          684.0,
          683.0,
          683.0,
          686.0,
          690.0,
          687.0,
          680.0,
          680.0,
          679.0,
          681.0,
          681.0,
          679.0,
          683.0,
          683.0,
          683.0,
          684.0,
          682.0,
          684.0,
          684.0,
          685.0,
          686.0,
          689.0,
          689.0,
          688.0,
          688.0,
          685.0,
          684.0,
          684.0,
          680.0,
          683.0,
          683.0,
          684.0,
          682.0,
          686.0,
          687.0,
          683.0,
          680.0,
          685.0,
          688.0,
          686.0,
          687.0,
          689.0,
          687.0,
          687.0,
          687.0,
          687.0,
          687.0,
          690.0,
          690.0,
          688.0,
          690.0,
          689.0,
          688.0,
          689.0,
          688.0,
          686.0,
          685.0,
          685.0,
          685.0,
          688.0,
          690.0,
          692.0,
          692.0,
          688.0,
          686.0,
          685.0,
          682.0,
          683.0,
          687.0,
          688.0,
          687.0,
          690.0,
          689.0,
          690.0,
          690.0,
          690.0,
          689.0,
          691.0,
          688.0,
          685.0,
          687.0,
          686.0,
          686.0,
          687.0,
          687.0,
          687.0,
          689.0,
          689.0,
          690.0,
          690.0,
          688.0,
          689.0,
          690.0,
          690.0,
          693.0,
          694.0,
          692.0,
          692.0,
          690.0,
          689.0,
          684.0,
          685.0,
          686.0,
          689.0,
          689.0,
          691.0,
          692.0,
          687.0,
          687.0,
          689.0,
          690.0,
          690.0,
          688.0,
          692.0,
          690.0,
          690.0,
          689.0,
          694.0,
          694.0,
          692.0,
          687.0,
          689.0,
          688.0,
          689.0
        ],
        "WindowWidth": [
          1447.0,
          1439.0,
          1437.0,
          1440.0,
          1440.0,
          1438.0,
          1434.0,
          1433.0,
          1431.0,
          1438.0,
          1448.0,
          1441.0,
          1425.0,
          1426.0,
          1424.0,
          1428.0,
          1428.0,
          1424.0,
          1432.0,
          1432.0,
          1432.0,
          1436.0,
          1431.0,
          1434.0,
          1435.0,
          1436.0,
          1439.0,
          1446.0,
          1446.0,
          1443.0,
          1444.0,
          1438.0,
          1436.0,
          1435.0,
          1427.0,
          1433.0,
          1433.0,
          1435.0,
          1431.0,
          1440.0,
          1441.0,
          1432.0,
          1427.0,
          1437.0,
          1444.0,
          1440.0,
          1443.0,
          1446.0,
          1441.0,
          1442.0,
          1441.0,
          1441.0,
          1442.0,
          1450.0,
          1449.0,
          1444.0,
          1448.0,
          1446.0,
          1444.0,
          1446.0,
          1444.0,
          1439.0,
          1437.0,
          1436.0,
          1438.0,
          1444.0,
          1449.0,
          1453.0,
          1452.0,
          1445.0,
          1439.0,
          1438.0,
          1431.0,
          1432.0,
          1442.0,
          1445.0,
          1441.0,
          1448.0,
          1446.0,
          1447.0,
          1449.0,
          1448.0,
          1446.0,
          1450.0,
          1444.0,
          1436.0,
          1441.0,
          1439.0,
          1439.0,
          1440.0,
          1441.0,
          1442.0,
          1446.0,
          1447.0,
          1449.0,
          1448.0,
          1443.0,
          1447.0,
          1448.0,
          1448.0,
          1455.0,
          1457.0,
          1453.0,
          1452.0,
          1448.0,
          1446.0,
          1434.0,
          1438.0,
          1440.0,
          1446.0,
          1445.0,
          1451.0,
          1453.0,
          1441.0,
          1442.0,
          1447.0,
          1449.0,
          1449.0,
          1445.0,
          1453.0,
          1450.0,
          1449.0,
          1447.0,
          1458.0,
          1458.0,
          1452.0,
          1443.0,
          1446.0,
          1444.0,
          1447.0
        ]
      },
      "slices": {}
    }
  },
  "dummy_trs": 0,
  "dvars_nstd": 38.767004485736415,
  "dvars_std": 1.341104376821705,
  "dvars_vstd": 1.0654772245736435,
  "efc": 0.545310527345041,
  "fber": 1547.3436279296875,
  "fd_mean": 0.5566366422384365,
  "fd_num": 116,
  "fd_perc": 89.23076923076923,
  "fwhm_avg": 1.6309222652994062,
  "fwhm_x": 1.5484,
  "fwhm_y": 1.8537666666666668,
  "fwhm_z": 1.490600129231551,
  "gcor": 0.0839062,
  "gsr_x": -0.0038411240093410015,
  "gsr_y": 0.028881164267659187,
  "provenance": {
    "md5sum": "53c1a1623c3e723c7ae9a39e174d4509",
    "settings": {
      "fd_thres": 0.2,
      "testing": false
    },
    "software": "mriqc",
    "version": "22.0.1",
    "webapi_port": null,
    "webapi_url": "https://mriqc.nimh.nih.gov/api/v1"
  },
  "size_t": 130,
  "size_x": 64,
  "size_y": 64,
  "size_z": 34,
  "snr": 7.069770739780519,
  "spacing_tr": 2.3399999141693115,
  "spacing_x": 3.0,
  "spacing_y": 3.0,
  "spacing_z": 3.299999713897705,
  "summary_bg_k": 46.02693484040018,
  "summary_bg_mad": 7.390201740617483,
  "summary_bg_mean": 31.130859375,
  "summary_bg_median": 18.876922607421875,
  "summary_bg_n": 77704.0,
  "summary_bg_p05": 11.276923179626465,
  "summary_bg_p95": 77.20654029846185,
  "summary_bg_stdv": 46.038108825683594,
  "summary_fg_k": 3.2157441036810637,
  "summary_fg_mad": 104.32953449581575,
  "summary_fg_mean": 761.8779907226562,
  "summary_fg_median": 762.2000122070312,
  "summary_fg_n": 29791.0,
  "summary_fg_p05": 604.2846069335938,
  "summary_fg_p95": 921.546142578125,
  "summary_fg_stdv": 107.809326171875,
  "tsnr": 51.30345822335221
}