{
  "aor": 0.01251716535433071,
  "aqi": 0.03079349921259843,
  "bids_meta": {
    "AcquisitionMatrixPE": 64,
    "AcquisitionNumber": 1,
    "AcquisitionTime": "09:40:26.145000",
    "BandwidthPerPixelPhaseEncode": 24.038,
    "BaseResolution": 64,
    "BodyPartExamined": "HEAD",
    "ConsistencyInfo": "N4_VD13A_LATEST_20120616",
    "ConversionSoftware": "dcm2niix",
    "ConversionSoftwareVersion": "v1.0.20181125  GCC6.3.0",
    "DerivedVendorReportedEchoSpacing": 0.000650012,
    "DeviceSerialNumber": "45250",
    "DwellTime": 4.6e-06,
    "EchoTime": 0.033,
    "EchoTrainLength": 64,
    "EffectiveEchoSpacing": 0.000650012,
    "FlipAngle": 90,
    "ImageOrientationPatientDICOM": [
      0.999187,
      -0.0228109,
      -0.0332488,
      0.0174409,
      0.987967,
      -0.153681
    ],
    "ImageType": [
      "ORIGINAL",
      "PRIMARY",
      "M",
      "ND",
      "NORM",
      "MOSAIC"
    ],
    "ImagingFrequency": 123.22,
    "InPlanePhaseEncodingDirectionDICOM": "COL",
    "InstitutionAddress": "Kopernikusstr._26_Graz_Graz_AT_8010",
    "InstitutionName": "KFU",
    "InstitutionalDepartmentName": "Department",
    "MRAcquisitionType": "2D",
    "MagneticFieldStrength": 3,
    "Manufacturer": "Siemens",
    "ManufacturersModelName": "Skyra",
    "Modality": "MR",
    "PartialFourier": 1,
    "PatientPosition": "HFS",
    "PercentPhaseFOV": 100,
    "PhaseEncodingDirection": "j-",
    "PhaseEncodingSteps": 64,
    "PhaseResolution": 1,
    "PixelBandwidth": 1700,
    "ProcedureStepDescription": "KFU_Entw-Psy",
    "ProtocolName": "fMRI_3",
    "PulseSequenceDetails": "%SiemensSeq%_ep2d_pace",
    "ReceiveCoilActiveElements": "HE1-4",
    "ReceiveCoilName": "HeadNeck_20",
    "ReconMatrixPE": 64,
    "RepetitionTime": 2.34,
    "SAR": 0.1459,
    "ScanOptions": "FS",
    "ScanningSequence": "EP",
    "SequenceName": "_epfid2d1_64",
    "SequenceVariant": "SK",
    "SeriesDescription": "fMRI_3",
    "SeriesNumber": 8,
    "ShimSetting": [
      -1707,
      -3806,
      -4245,
      600,
      421,
      -287,
      61,
      -446
    ],
    "SliceThickness": 3,
    "SliceTiming": [
      2.25,
      2.1825,
      2.115,
      2.045,
      1.9775,
      1.91,
      1.84,
      1.7725,
      1.705,
      1.6375,
      1.5675,
      1.5,
      1.4325,
      1.3625,
      1.295,
      1.2275,
      1.16,
      1.09,
      1.0225,
      0.955,
      0.885,
      0.8175,
      0.75,
      0.6825,
      0.6125,
      0.545,
      0.4775,
      0.4075,
      0.34,
      0.2725,
      0.2025,
      0.135,
      0.0675,
      0
    ],
    "SoftwareVersions": "syngo_MR_D13",
    "SpacingBetweenSlices": 3.3,
    "StationName": "FBMTMR1",
    "TaskName": "read",
    "TotalReadoutTime": 0.0409508,
    "TxRefAmp": 329.259,
    "dataset": "ds003126",
    "dcmmeta_affine": [
      [
        -2.9975602626800537,
        0.05232257768511772,
        -0.11996906250715256,
        93.25025939941406
      ],
      [
        0.06843256950378418,
        2.963899850845337,
        -0.5048198699951172,
        -109.93051147460938
      ],
      [
        -0.09974630922079086,
        0.46104174852371216,
        3.258951425552368,
        -15.218703269958496
      ],
      [
        0.0,
        0.0,
        0.0,
        1.0
      ]
    ],
    "dcmmeta_reorient_transform": [
      [
        0.0,
        -1.0,
        0.0,
        63.0
      ],
      [
        1.0,
        0.0,
        0.0,
        0.0
      ],
      [
        0.0,
        0.0,
        1.0,
        0.0
      ],
      [
        0.0,
        0.0,
        0.0,
        1.0
      ]
    ],
    "dcmmeta_shape": [
      64,
      64,
      34,
      127
    ],
    "dcmmeta_slice_dim": 2,
    "dcmmeta_version": 0.6,
    "global": {
      "const": {
        "AcquisitionMatrix": [
          64,
          0,
          0,
          64
        ],
        "AngioFlag": "N",
        "BitsAllocated": 16,
        "BitsStored": 12,
        "BodyPartExamined": "HEAD",
        "Columns": 384,
        "EchoNumbers": 1,
        "EchoTime": 33.0,
        "EchoTrainLength": 64,
        "FlipAngle": 90.0,
        "HighBit": 11,
        "ImageOrientationPatient": [
          0.99918676137577,
          -0.0228108575117,
          -0.0332487694658,
          0.017440859742,
          0.98796664675943,
          -0.1536805820603
        ],
        "ImagePositionPatient": [
          -584.52784288227,
          -540.06996383187,
          103.553015101
        ],
        "ImageType": [
          "ORIGINAL",
          "PRIMARY",
          "M",
          "ND",
          "NORM",
          "MOSAIC"
        ],
        "ImagedNucleus": "1H",
        "ImagingFrequency": 123.220064,
        "InPlanePhaseEncodingDirection": "COL",
        "MRAcquisitionType": "2D",
        "MagneticFieldStrength": 3.0,
        "Manufacturer": "SIEMENS",
        "ManufacturerModelName": "Skyra",
        "Modality": "MR",
        "NumberOfAverages": 1.0,
        "NumberOfPhaseEncodingSteps": 64,
        "PercentPhaseFieldOfView": 100.0,
        "PercentSampling": 100.0,
        "PerformedProcedureStepStartTime": "092053.971000",
        "PhotometricInterpretation": "MONOCHROME2",
        "PixelBandwidth": 1700.0,
        "PixelRepresentation": 0,
        "PixelSpacing": [
          3.0,
          3.0
        ],
        "ProtocolName": "fMRI_3",
        "RepetitionTime": 2340.0,
        "Rows": 384,
        "SAR": 0.14589962055098,
        "SamplesPerPixel": 1,
        "ScanOptions": "FS",
        "ScanningSequence": "EP",
        "SequenceName": "*epfid2d1_64",
        "SequenceVariant": "SK",
        "SeriesDescription": "fMRI_3",
        "SeriesNumber": 8,
        "SeriesTime": "094128.821000",
        "SliceLocation": -1.6027444430691,
        "SliceThickness": 3.0,
        "SmallestImagePixelValue": 0,
        "SoftwareVersions": "syngo MR D13",
        "SpacingBetweenSlices": 3.3000000986713,
        "SpecificCharacterSet": "ISO_IR 100",
        "StudyID": "1",
        "StudyTime": "092053.872000",
        "TransmitCoilName": "Body",
        "VariableFlipAngleFlag": "N",
        "WindowCenterWidthExplanation": "Algo1",
        "dBdt": 0.0
      },
      "slices": {}
    },
    "modality": "bold",
    "run_id": 3,
    "session_id": "2",
    "subject_id": "047EPKL012069",
    "task_id": "read",
    "time": {
      "samples": {
        "AcquisitionNumber": [
          1,
          2,
          3,
          4,
          5,
          6,
          7,
          8,
          9,
          10,
          11,
          12,
          13,
          14,
          15,
          16,
          17,
          18,
          19,
          20,
          21,
          22,
          23,
          24,
          25,
          26,
          27,
          28,
          29,
          30,
          31,
          32,
          33,
          34,
          35,
          36,
          37,
          38,
          39,
          40,
          41,
          42,
          43,
          44,
          45,
          46,
          47,
          48,
          49,
          50,
          51,
          52,
          53,
          54,
          55,
          56,
          57,
          58,
          59,
          60,
          61,
          62,
          63,
          64,
          65,
          66,
          67,
          68,
          69,
          70,
          71,
          72,
          73,
          74,
          75,
          76,
          77,
          78,
          79,
          80,
          81,
          82,
          83,
          84,
          85,
          86,
          87,
          88,
          89,
          90,
          91,
          92,
          93,
          94,
          95,
          96,
          97,
          98,
          99,
          100,
          101,
          102,
          103,
          104,
          105,
          106,
          107,
          108,
          109,
          110,
          111,
          112,
          113,
          114,
          115,
          116,
          117,
          118,
          119,
          120,
          121,
          122,
          123,
          124,
          125,
          126,
          127
        ],
        "AcquisitionTime": [
          "094026.145000",
          "094028.485000",
          "094030.825000",
          "094033.165000",
          "094035.505000",
          "094037.845000",
          "094040.185000",
          "094042.525000",
          "094044.865000",
          "094047.205000",
          "094049.545000",
          "094051.885000",
          "094054.225000",
          "094056.565000",
          "094058.905000",
          "094101.245000",
          "094103.585000",
          "094105.925000",
          "094108.265000",
          "094110.605000",
          "094112.945000",
          "094115.285000",
          "094117.625000",
          "094119.965000",
          "094122.305000",
          "094124.645000",
          "094126.985000",
          "094129.325000",
          "094131.665000",
          "094134.005000",
          "094136.345000",
          "094138.685000",
          "094141.025000",
          "094143.365000",
          "094145.705000",
          "094148.045000",
          "094150.385000",
          "094152.725000",
          "094155.065000",
          "094157.405000",
          "094159.745000",
          "094202.085000",
          "094204.425000",
          "094206.765000",
          "094209.105000",
          "094211.445000",
          "094213.785000",
          "094216.125000",
          "094218.465000",
          "094220.805000",
          "094223.145000",
          "094225.485000",
          "094227.825000",
          "094230.165000",
          "094232.505000",
          "094234.845000",
          "094237.185000",
          "094239.525000",
          "094241.865000",
          "094244.205000",
          "094246.545000",
          "094248.885000",
          "094251.225000",
          "094253.565000",
          "094255.905000",
          "094258.245000",
          "094300.585000",
          "094302.925000",
          "094305.265000",
          "094307.605000",
          "094309.945000",
          "094312.285000",
          "094314.625000",
          "094316.965000",
          "094319.305000",
          "094321.645000",
          "094323.985000",
          "094326.325000",
          "094328.665000",
          "094331.005000",
          "094333.345000",
          "094335.685000",
          "094338.025000",
          "094340.365000",
          "094342.705000",
          "094345.045000",
          "094347.385000",
          "094349.725000",
          "094352.065000",
          "094354.405000",
          "094356.745000",
          "094359.085000",
          "094401.425000",
          "094403.765000",
          "094406.105000",
          "094408.445000",
          "094410.785000",
          "094413.125000",
          "094415.465000",
          "094417.805000",
          "094420.145000",
          "094422.485000",
          "094424.825000",
          "094427.165000",
          "094429.505000",
          "094431.845000",
          "094434.185000",
          "094436.525000",
          "094438.865000",
          "094441.205000",
          "094443.545000",
          "094445.885000",
          "094448.225000",
          "094450.565000",
          "094452.905000",
          "094455.245000",
          "094457.585000",
          "094459.925000",
          "094502.265000",
          "094504.605000",
          "094506.945000",
          "094509.285000",
          "094511.625000",
          "094513.965000",
          "094516.305000",
          "094518.645000",
          "094520.985000"
        ],
        "ContentTime": [
          "094128.825000",
          "094128.829000",
          "094128.832000",
          "094128.834000",
          "094128.842000",
          "094128.844000",
          "094128.847000",
          "094128.850000",
          "094128.853000",
          "094128.855000",
          "094128.858000",
          "094128.861000",
          "094128.864000",
          "094128.866000",
          "094128.869000",
          "094128.872000",
          "094128.874000",
          "094128.877000",
          "094128.880000",
          "094128.882000",
          "094128.885000",
          "094128.888000",
          "094128.891000",
          "094128.893000",
          "094128.896000",
          "094128.899000",
          "094128.902000",
          "094228.820000",
          "094228.823000",
          "094228.826000",
          "094228.828000",
          "094228.831000",
          "094228.834000",
          "094228.837000",
          "094228.839000",
          "094228.842000",
          "094228.845000",
          "094228.847000",
          "094228.850000",
          "094228.853000",
          "094228.856000",
          "094228.858000",
          "094228.861000",
          "094228.864000",
          "094228.867000",
          "094228.869000",
          "094228.872000",
          "094228.875000",
          "094228.877000",
          "094228.880000",
          "094228.882000",
          "094228.885000",
          "094228.888000",
          "094248.820000",
          "094248.823000",
          "094248.826000",
          "094248.829000",
          "094248.836000",
          "094248.839000",
          "094248.841000",
          "094248.844000",
          "094348.819000",
          "094348.822000",
          "094348.825000",
          "094348.827000",
          "094348.837000",
          "094348.839000",
          "094348.842000",
          "094348.845000",
          "094348.848000",
          "094348.851000",
          "094348.853000",
          "094348.856000",
          "094348.859000",
          "094348.861000",
          "094348.864000",
          "094348.867000",
          "094348.870000",
          "094348.872000",
          "094348.875000",
          "094348.877000",
          "094348.880000",
          "094348.883000",
          "094348.885000",
          "094348.888000",
          "094348.891000",
          "094348.894000",
          "094448.820000",
          "094448.823000",
          "094448.825000",
          "094448.828000",
          "094448.831000",
          "094448.833000",
          "094448.836000",
          "094448.839000",
          "094448.841000",
          "094448.844000",
          "094448.847000",
          "094448.849000",
          "094448.852000",
          "094448.855000",
          "094448.858000",
          "094448.860000",
          "094448.863000",
          "094448.866000",
          "094448.868000",
          "094448.871000",
          "094448.874000",
          "094448.876000",
          "094448.892000",
          "094448.895000",
          "094448.898000",
          "094448.900000",
          "094522.428000",
          "094522.431000",
          "094522.434000",
          "094522.437000",
          "094522.446000",
          "094522.450000",
          "094522.453000",
          "094522.456000",
          "094522.460000",
          "094522.463000",
          "094522.465000",
          "094522.469000",
          "094522.472000",
          "094522.475000"
        ],
        "InstanceCreationTime": [
          "094128.825000",
          "094128.829000",
          "094128.832000",
          "094128.834000",
          "094128.842000",
          "094128.844000",
          "094128.847000",
          "094128.850000",
          "094128.853000",
          "094128.855000",
          "094128.858000",
          "094128.861000",
          "094128.864000",
          "094128.866000",
          "094128.869000",
          "094128.872000",
          "094128.874000",
          "094128.877000",
          "094128.880000",
          "094128.882000",
          "094128.885000",
          "094128.888000",
          "094128.891000",
          "094128.893000",
          "094128.896000",
          "094128.899000",
          "094128.902000",
          "094228.820000",
          "094228.823000",
          "094228.826000",
          "094228.828000",
          "094228.831000",
          "094228.834000",
          "094228.837000",
          "094228.839000",
          "094228.842000",
          "094228.845000",
          "094228.847000",
          "094228.850000",
          "094228.853000",
          "094228.856000",
          "094228.858000",
          "094228.861000",
          "094228.864000",
          "094228.867000",
          "094228.869000",
          "094228.872000",
          "094228.875000",
          "094228.877000",
          "094228.880000",
          "094228.882000",
          "094228.885000",
          "094228.888000",
          "094248.820000",
          "094248.823000",
          "094248.826000",
          "094248.829000",
          "094248.836000",
          "094248.839000",
          "094248.841000",
          "094248.844000",
          "094348.819000",
          "094348.822000",
          "094348.825000",
          "094348.827000",
          "094348.837000",
          "094348.839000",
          "094348.842000",
          "094348.845000",
          "094348.848000",
          "094348.851000",
          "094348.853000",
          "094348.856000",
          "094348.859000",
          "094348.861000",
          "094348.864000",
          "094348.867000",
          "094348.870000",
          "094348.872000",
          "094348.875000",
          "094348.877000",
          "094348.880000",
          "094348.883000",
          "094348.885000",
          "094348.888000",
          "094348.891000",
          "094348.894000",
          "094448.820000",
          "094448.823000",
          "094448.825000",
          "094448.828000",
          "094448.831000",
          "094448.833000",
          "094448.836000",
          "094448.839000",
          "094448.841000",
          "094448.844000",
          "094448.847000",
          "094448.849000",
          "094448.852000",
          "094448.855000",
          "094448.858000",
          "094448.860000",
          "094448.863000",
          "094448.866000",
          "094448.868000",
          "094448.871000",
          "094448.874000",
          "094448.876000",
          "094448.892000",
          "094448.895000",
          "094448.898000",
          "094448.900000",
          "094522.428000",
          "094522.431000",
          "094522.434000",
          "094522.437000",
          "094522.446000",
          "094522.450000",
          "094522.453000",
          "094522.456000",
          "094522.460000",
          "094522.463000",
          "094522.465000",
          "094522.469000",
          "094522.472000",
          "094522.475000"
        ],
        "InstanceNumber": [
          1,
          2,
          3,
          4,
          5,
          6,
          7,
          8,
          9,
          10,
          11,
          12,
          13,
          14,
          15,
          16,
          17,
          18,
          19,
          20,
          21,
          22,
          23,
          24,
          25,
          26,
          27,
          28,
          29,
          30,
          31,
          32,
          33,
          34,
          35,
          36,
          37,
          38,
          39,
          40,
          41,
          42,
          43,
          44,
          45,
          46,
          47,
          48,
          49,
          50,
          51,
          52,
          53,
          54,
          55,
          56,
          57,
          58,
          59,
          60,
          61,
          62,
          63,
          64,
          65,
          66,
          67,
          68,
          69,
          70,
          71,
          72,
          73,
          74,
          75,
          76,
          77,
          78,
          79,
          80,
          81,
          82,
          83,
          84,
          85,
          86,
          87,
          88,
          89,
          90,
          91,
          92,
          93,
          94,
          95,
          96,
          97,
          98,
          99,
          100,
          101,
          102,
          103,
          104,
          105,
          106,
          107,
          108,
          109,
          110,
          111,
          112,
          113,
          114,
          115,
          116,
          117,
          118,
          119,
          120,
          121,
          122,
          123,
          124,
          125,
          126,
          127
        ],
        "LargestImagePixelValue": [
          2617,
          2006,
          2483,
          2174,
          2648,
          2524,
          2317,
          2904,
          1879,
          2370,
          2200,
          2533,
          1899,
          2010,
          1825,
          2052,
          2770,
          2835,
          1799,
          1806,
          2187,
          2712,
          2170,
          1767,
          2376,
          2407,
          2001,
          1702,
          1825,
          2661,
          2125,
          1787,
          1970,
          2153,
          1873,
          2302,
          2677,
          2142,
          1839,
          1737,
          2603,
          1825,
          1884,
          2701,
          1846,
          2333,
          1789,
          1954,
          2119,
          2315,
          2443,
          1808,
          2374,
          2553,
          3109,
          2452,
          1852,
          2158,
          2052,
          1828,
          2267,
          2715,
          1900,
          2376,
          1770,
          1742,
          2508,
          2458,
          2286,
          2264,
          1914,
          2423,
          2865,
          1941,
          1821,
          2601,
          2625,
          1785,
          1766,
          2346,
          2922,
          2354,
          2574,
          1857,
          1717,
          1997,
          2189,
          2837,
          2231,
          1810,
          1965,
          3115,
          2512,
          1715,
          2365,
          1749,
          2104,
          2271,
          3155,
          1738,
          2001,
          2432,
          2173,
          2349,
          1835,
          2310,
          2034,
          1797,
          2044,
          3437,
          2279,
          1707,
          2160,
          1832,
          2429,
          2852,
          1918,
          2249,
          1893,
          2290,
          1813,
          2788,
          2432,
          2216,
          1966,
          2053,
          2105
        ],
        "WindowCenter": [
          783.0,
          783.0,
          785.0,
          784.0,
          785.0,
          783.0,
          782.0,
          785.0,
          781.0,
          784.0,
          781.0,
          784.0,
          782.0,
          782.0,
          782.0,
          785.0,
          783.0,
          783.0,
          778.0,
          786.0,
          784.0,
          784.0,
          778.0,
          781.0,
          782.0,
          780.0,
          781.0,
          783.0,
          784.0,
          785.0,
          782.0,
          784.0,
          784.0,
          784.0,
          783.0,
          785.0,
          785.0,
          785.0,
          781.0,
          788.0,
          787.0,
          783.0,
          786.0,
          787.0,
          778.0,
          783.0,
          781.0,
          781.0,
          783.0,
          783.0,
          784.0,
          782.0,
          785.0,
          785.0,
          783.0,
          783.0,
          779.0,
          783.0,
          783.0,
          783.0,
          782.0,
          785.0,
          784.0,
          786.0,
          782.0,
          785.0,
          788.0,
          785.0,
          781.0,
          781.0,
          783.0,
          784.0,
          782.0,
          783.0,
          782.0,
          785.0,
          783.0,
          781.0,
          783.0,
          784.0,
          784.0,
          782.0,
          779.0,
          781.0,
          779.0,
          784.0,
          787.0,
          787.0,
          780.0,
          783.0,
          781.0,
          785.0,
          782.0,
          777.0,
          780.0,
          783.0,
          784.0,
          785.0,
          784.0,
          781.0,
          783.0,
          786.0,
          784.0,
          783.0,
          783.0,
          784.0,
          780.0,
          780.0,
          781.0,
          774.0,
          769.0,
          782.0,
          780.0,
          779.0,
          782.0,
          783.0,
          778.0,
          783.0,
          781.0,
          784.0,
          782.0,
          785.0,
          781.0,
          782.0,
          784.0,
          783.0,
          782.0
        ],
        "WindowWidth": [
          1669.0,
          1669.0,
          1676.0,
          1673.0,
          1675.0,
          1670.0,
          1668.0,
          1674.0,
          1664.0,
          1671.0,
          1665.0,
          1674.0,
          1666.0,
          1665.0,
          1667.0,
          1672.0,
          1674.0,
          1669.0,
          1657.0,
          1677.0,
          1672.0,
          1674.0,
          1654.0,
          1665.0,
          1668.0,
          1663.0,
          1663.0,
          1669.0,
          1671.0,
          1673.0,
          1668.0,
          1670.0,
          1672.0,
          1672.0,
          1669.0,
          1675.0,
          1678.0,
          1673.0,
          1662.0,
          1682.0,
          1680.0,
          1668.0,
          1676.0,
          1682.0,
          1656.0,
          1670.0,
          1664.0,
          1665.0,
          1668.0,
          1669.0,
          1670.0,
          1667.0,
          1676.0,
          1674.0,
          1670.0,
          1669.0,
          1660.0,
          1669.0,
          1670.0,
          1667.0,
          1667.0,
          1676.0,
          1670.0,
          1680.0,
          1668.0,
          1673.0,
          1682.0,
          1675.0,
          1666.0,
          1665.0,
          1669.0,
          1673.0,
          1668.0,
          1667.0,
          1667.0,
          1673.0,
          1673.0,
          1662.0,
          1669.0,
          1671.0,
          1674.0,
          1664.0,
          1657.0,
          1664.0,
          1660.0,
          1671.0,
          1676.0,
          1682.0,
          1661.0,
          1669.0,
          1663.0,
          1675.0,
          1666.0,
          1651.0,
          1659.0,
          1668.0,
          1671.0,
          1674.0,
          1675.0,
          1663.0,
          1668.0,
          1677.0,
          1671.0,
          1670.0,
          1668.0,
          1671.0,
          1662.0,
          1665.0,
          1665.0,
          1646.0,
          1629.0,
          1664.0,
          1660.0,
          1658.0,
          1664.0,
          1667.0,
          1654.0,
          1666.0,
          1662.0,
          1668.0,
          1665.0,
          1675.0,
          1663.0,
          1665.0,
          1671.0,
          1667.0,
          1665.0
        ]
      },
      "slices": {}
    }
  },
  "dummy_trs": 0,
  "dvars_nstd": 51.08686368468255,
  "dvars_std": 1.3414722738095242,
  "dvars_vstd": 1.0907770832539683,
  "efc": 0.5585377507738142,
  "fber": 1627.979248046875,
  "fd_mean": 0.9583734205884002,
  "fd_num": 118,
  "fd_perc": 92.91338582677166,
  "fwhm_avg": 1.6091900718347913,
  "fwhm_x": 1.5141766666666667,
  "fwhm_y": 1.7990633333333335,
  "fwhm_z": 1.5143302155043736,
  "gcor": 0.0558716,
  "gsr_x": -0.009065010584890842,
  "gsr_y": 0.03582064062356949,
  "provenance": {
    "md5sum": "82fbd28bcf956f7dee8703e3297dee57",
    "settings": {
      "fd_thres": 0.2,
      "testing": false
    },
    "software": "mriqc",
    "version": "22.0.1",
    "webapi_port": null,
    "webapi_url": "https://mriqc.nimh.nih.gov/api/v1"
  },
  "size_t": 127,
  "size_x": 64,
  "size_y": 64,
  "size_z": 34,
  "snr": 7.40951145775701,
  "spacing_tr": 2.3399999141693115,
  "spacing_x": 3.0,
  "spacing_y": 3.0,
  "spacing_z": 3.3000001907348633,
  "summary_bg_k": 63.79724989901631,
  "summary_bg_mad": 9.922927744230684,
  "summary_bg_mean": 34.92481231689453,
  "summary_bg_median": 22.12598419189453,
  "summary_bg_n": 74982.0,
  "summary_bg_p05": 12.543307304382324,
  "summary_bg_p95": 93.19685363769531,
  "summary_bg_stdv": 46.44892120361328,
  "summary_fg_k": 2.2669552670210695,
  "summary_fg_mad": 123.28361388942265,
  "summary_fg_mean": 917.9403076171875,
  "summary_fg_median": 914.2322998046875,
  "summary_fg_n": 32112.0,
  "summary_fg_p05": 742.6543518066406,
  "summary_fg_p95": 1109.5929382324216,
  "summary_fg_stdv": 123.38439178466797,
  "tsnr": 37.03712873684708
}