{
  "aor": 0.002557364341085271,
  "aqi": 0.013869742093023257,
  "bids_meta": {
    "AcquisitionMatrixPE": 64,
    "AcquisitionNumber": 1,
    "AcquisitionTime": "11:11:25.407500",
    "BandwidthPerPixelPhaseEncode": 24.038,
    "BaseResolution": 64,
    "BodyPartExamined": "HEAD",
    "ConsistencyInfo": "N4_VD13A_LATEST_20120616",
    "ConversionSoftware": "dcm2niix",
    "ConversionSoftwareVersion": "v1.0.20181125  GCC6.3.0",
    "DerivedVendorReportedEchoSpacing": 0.000650012,
    "DeviceSerialNumber": "45250",
    "DwellTime": 4.6e-06,
    "EchoTime": 0.033,
    "EchoTrainLength": 64,
    "EffectiveEchoSpacing": 0.000650012,
    "FlipAngle": 90,
    "ImageOrientationPatientDICOM": [
      0.996346,
      -0.00105444,
      -0.0853988,
      -0.0121733,
      0.987961,
      -0.154224
    ],
    "ImageType": [
      "ORIGINAL",
      "PRIMARY",
      "M",
      "ND",
      "NORM",
      "MOSAIC"
    ],
    "ImagingFrequency": 123.214,
    "InPlanePhaseEncodingDirectionDICOM": "COL",
    "InstitutionAddress": "Kopernikusstr._26_Graz_Graz_AT_8010",
    "InstitutionName": "KFU",
    "InstitutionalDepartmentName": "Department",
    "MRAcquisitionType": "2D",
    "MagneticFieldStrength": 3,
    "Manufacturer": "Siemens",
    "ManufacturersModelName": "Skyra",
    "Modality": "MR",
    "PartialFourier": 1,
    "PatientPosition": "HFS",
    "PercentPhaseFOV": 100,
    "PhaseEncodingDirection": "j-",
    "PhaseEncodingSteps": 64,
    "PhaseResolution": 1,
    "PixelBandwidth": 1700,
    "ProcedureStepDescription": "KFU_Entw-Psy",
    "ProtocolName": "fMRI_2",
    "PulseSequenceDetails": "%SiemensSeq%_ep2d_pace",
    "ReceiveCoilActiveElements": "HE1-4",
    "ReceiveCoilName": "HeadNeck_20",
    "ReconMatrixPE": 64,
    "RepetitionTime": 2.34,
    "SAR": 0.164518,
    "ScanOptions": "FS",
    "ScanningSequence": "EP",
    "SequenceName": "_epfid2d1_64",
    "SequenceVariant": "SK",
    "SeriesDescription": "fMRI_2",
    "SeriesNumber": 5,
    "ShimSetting": [
      -1646,
      -3627,
      -4309,
      333,
      468,
      281,
      411,
      -192
    ],
    "SliceThickness": 3,
    "SliceTiming": [
      2.25,
      2.1825,
      2.115,
      2.045,
      1.9775,
      1.91,
      1.84,
      1.7725,
      1.705,
      1.6375,
      1.5675,
      1.5,
      1.4325,
      1.3625,
      1.295,
      1.2275,
      1.16,
      1.09,
      1.0225,
      0.955,
      0.885,
      0.8175,
      0.75,
      0.68,
      0.6125,
      0.545,
      0.4775,
      0.4075,
      0.34,
      0.2725,
      0.2025,
      0.135,
      0.0675,
      0
    ],
    "SoftwareVersions": "syngo_MR_D13",
    "SpacingBetweenSlices": 3.3,
    "StationName": "FBMTMR1",
    "TaskName": "read",
    "TotalReadoutTime": 0.0409508,
    "TxRefAmp": 346.795,
    "dataset": "ds003126",
    "dcmmeta_affine": [
      [
        -2.9890389442443848,
        -0.0365198478102684,
        -0.2789599597454071,
        96.84815979003906
      ],
      [
        0.0031633235048502684,
        2.9638826847076416,
        -0.5105104446411133,
        -110.74565124511719
      ],
      [
        -0.2561964690685272,
        0.4626721143722534,
        3.248316526412964,
        -12.114497184753418
      ],
      [
        0.0,
        0.0,
        0.0,
        1.0
      ]
    ],
    "dcmmeta_reorient_transform": [
      [
        0.0,
        -1.0,
        0.0,
        63.0
      ],
      [
        1.0,
        0.0,
        0.0,
        0.0
      ],
      [
        0.0,
        0.0,
        1.0,
        0.0
      ],
      [
        0.0,
        0.0,
        0.0,
        1.0
      ]
    ],
    "dcmmeta_shape": [
      64,
      64,
      34,
      129
    ],
    "dcmmeta_slice_dim": 2,
    "dcmmeta_version": 0.6,
    "global": {
      "const": {
        "AcquisitionMatrix": [
          64,
          0,
          0,
          64
        ],
        "AngioFlag": "N",
        "BitsAllocated": 16,
        "BitsStored": 12,
        "BodyPartExamined": "HEAD",
        "Columns": 384,
        "EchoNumbers": 1,
        "EchoTime": 33.0,
        "EchoTrainLength": 64,
        "FlipAngle": 90.0,
        "HighBit": 11,
        "ImageOrientationPatient": [
          0.99634628962429,
          -0.0010544411897,
          -0.0853988249667,
          -0.0121732826488,
          0.98796090869847,
          -0.1542240385713
        ],
        "ImagePositionPatient": [
          -566.95045510817,
          -549.69406812562,
          132.05282062929
        ],
        "ImageType": [
          "ORIGINAL",
          "PRIMARY",
          "M",
          "ND",
          "NORM",
          "MOSAIC"
        ],
        "ImagedNucleus": "1H",
        "ImagingFrequency": 123.214483,
        "InPlanePhaseEncodingDirection": "COL",
        "MRAcquisitionType": "2D",
        "MagneticFieldStrength": 3.0,
        "Manufacturer": "SIEMENS",
        "ManufacturerModelName": "Skyra",
        "Modality": "MR",
        "NumberOfAverages": 1.0,
        "NumberOfPhaseEncodingSteps": 64,
        "PercentPhaseFieldOfView": 100.0,
        "PercentSampling": 100.0,
        "PerformedProcedureStepStartTime": "110001.047000",
        "PhotometricInterpretation": "MONOCHROME2",
        "PixelBandwidth": 1700.0,
        "PixelRepresentation": 0,
        "PixelSpacing": [
          3.0,
          3.0
        ],
        "ProtocolName": "fMRI_2",
        "RepetitionTime": 2340.0,
        "Rows": 384,
        "SAR": 0.1645182544281,
        "SamplesPerPixel": 1,
        "ScanOptions": "FS",
        "ScanningSequence": "EP",
        "SequenceName": "*epfid2d1_64",
        "SequenceVariant": "SK",
        "SeriesDescription": "fMRI_2",
        "SeriesNumber": 5,
        "SeriesTime": "111212.915000",
        "SliceLocation": -2.9792944742049,
        "SliceThickness": 3.0,
        "SmallestImagePixelValue": 0,
        "SoftwareVersions": "syngo MR D13",
        "SpacingBetweenSlices": 3.2999999208114,
        "SpecificCharacterSet": "ISO_IR 100",
        "StudyID": "1",
        "StudyTime": "110000.997000",
        "TransmitCoilName": "Body",
        "VariableFlipAngleFlag": "N",
        "WindowCenterWidthExplanation": "Algo1",
        "dBdt": 0.0
      },
      "slices": {}
    },
    "modality": "bold",
    "run_id": 2,
    "session_id": "2",
    "subject_id": "047EPKL014020",
    "task_id": "read",
    "time": {
      "samples": {
        "AcquisitionNumber": [
          1,
          2,
          3,
          4,
          5,
          6,
          7,
          8,
          9,
          10,
          11,
          12,
          13,
          14,
          15,
          16,
          17,
          18,
          19,
          20,
          21,
          22,
          23,
          24,
          25,
          26,
          27,
          28,
          29,
          30,
          31,
          32,
          33,
          34,
          35,
          36,
          37,
          38,
          39,
          40,
          41,
          42,
          43,
          44,
          45,
          46,
          47,
          48,
          49,
          50,
          51,
          52,
          53,
          54,
          55,
          56,
          57,
          58,
          59,
          60,
          61,
          62,
          63,
          64,
          65,
          66,
          67,
          68,
          69,
          70,
          71,
          72,
          73,
          74,
          75,
          76,
          77,
          78,
          79,
          80,
          81,
          82,
          83,
          84,
          85,
          86,
          87,
          88,
          89,
          90,
          91,
          92,
          93,
          94,
          95,
          96,
          97,
          98,
          99,
          100,
          101,
          102,
          103,
          104,
          105,
          106,
          107,
          108,
          109,
          110,
          111,
          112,
          113,
          114,
          115,
          116,
          117,
          118,
          119,
          120,
          121,
          122,
          123,
          124,
          125,
          126,
          127,
          128,
          129
        ],
        "AcquisitionTime": [
          "111125.407500",
          "111127.747500",
          "111130.087500",
          "111132.427500",
          "111134.767500",
          "111137.107500",
          "111139.447500",
          "111141.787500",
          "111144.127500",
          "111146.467500",
          "111148.807500",
          "111151.147500",
          "111153.487500",
          "111155.827500",
          "111158.167500",
          "111200.507500",
          "111202.847500",
          "111205.187500",
          "111207.527500",
          "111209.867500",
          "111212.207500",
          "111214.547500",
          "111216.887500",
          "111219.227500",
          "111221.567500",
          "111223.907500",
          "111226.247500",
          "111228.587500",
          "111230.927500",
          "111233.267500",
          "111235.607500",
          "111237.947500",
          "111240.287500",
          "111242.627500",
          "111244.967500",
          "111247.307500",
          "111249.647500",
          "111251.987500",
          "111254.327500",
          "111256.667500",
          "111259.007500",
          "111301.347500",
          "111303.687500",
          "111306.027500",
          "111308.367500",
          "111310.707500",
          "111313.047500",
          "111315.387500",
          "111317.727500",
          "111320.067500",
          "111322.407500",
          "111324.747500",
          "111327.087500",
          "111329.427500",
          "111331.767500",
          "111334.107500",
          "111336.447500",
          "111338.787500",
          "111341.127500",
          "111343.467500",
          "111345.807500",
          "111348.147500",
          "111350.487500",
          "111352.827500",
          "111355.167500",
          "111357.507500",
          "111359.847500",
          "111402.187500",
          "111404.527500",
          "111406.867500",
          "111409.207500",
          "111411.547500",
          "111413.887500",
          "111416.227500",
          "111418.567500",
          "111420.907500",
          "111423.247500",
          "111425.587500",
          "111427.927500",
          "111430.267500",
          "111432.607500",
          "111434.947500",
          "111437.287500",
          "111439.627500",
          "111441.967500",
          "111444.307500",
          "111446.647500",
          "111448.987500",
          "111451.327500",
          "111453.667500",
          "111456.007500",
          "111458.347500",
          "111500.687500",
          "111503.027500",
          "111505.367500",
          "111507.707500",
          "111510.047500",
          "111512.387500",
          "111514.727500",
          "111517.067500",
          "111519.407500",
          "111521.747500",
          "111524.087500",
          "111526.427500",
          "111528.767500",
          "111531.107500",
          "111533.447500",
          "111535.787500",
          "111538.127500",
          "111540.467500",
          "111542.807500",
          "111545.147500",
          "111547.487500",
          "111549.827500",
          "111552.167500",
          "111554.507500",
          "111556.847500",
          "111559.187500",
          "111601.527500",
          "111603.867500",
          "111606.207500",
          "111608.547500",
          "111610.887500",
          "111613.227500",
          "111615.567500",
          "111617.907500",
          "111620.247500",
          "111622.587500",
          "111624.927500"
        ],
        "ContentTime": [
          "111212.919000",
          "111212.923000",
          "111212.932000",
          "111212.934000",
          "111212.937000",
          "111212.943000",
          "111212.945000",
          "111212.948000",
          "111212.950000",
          "111212.953000",
          "111212.955000",
          "111212.958000",
          "111212.961000",
          "111212.963000",
          "111212.966000",
          "111212.968000",
          "111212.971000",
          "111212.973000",
          "111212.976000",
          "111212.979000",
          "111312.912000",
          "111312.915000",
          "111312.918000",
          "111312.921000",
          "111312.924000",
          "111312.927000",
          "111312.929000",
          "111312.932000",
          "111312.935000",
          "111312.937000",
          "111312.940000",
          "111312.943000",
          "111312.945000",
          "111312.948000",
          "111312.950000",
          "111312.953000",
          "111312.956000",
          "111312.959000",
          "111312.961000",
          "111312.964000",
          "111312.967000",
          "111312.969000",
          "111312.972000",
          "111312.975000",
          "111312.977000",
          "111312.980000",
          "111412.912000",
          "111412.915000",
          "111412.918000",
          "111412.921000",
          "111412.924000",
          "111412.927000",
          "111412.930000",
          "111412.933000",
          "111412.936000",
          "111412.938000",
          "111412.941000",
          "111412.944000",
          "111412.946000",
          "111412.949000",
          "111412.952000",
          "111412.955000",
          "111412.958000",
          "111412.961000",
          "111412.964000",
          "111412.966000",
          "111412.969000",
          "111412.972000",
          "111412.975000",
          "111412.978000",
          "111412.981000",
          "111412.984000",
          "111512.912000",
          "111512.915000",
          "111512.918000",
          "111512.920000",
          "111512.923000",
          "111512.925000",
          "111512.928000",
          "111512.931000",
          "111512.933000",
          "111512.936000",
          "111512.938000",
          "111512.941000",
          "111512.944000",
          "111512.947000",
          "111512.949000",
          "111512.952000",
          "111512.955000",
          "111512.957000",
          "111512.960000",
          "111512.963000",
          "111512.965000",
          "111512.968000",
          "111512.970000",
          "111512.973000",
          "111512.976000",
          "111612.913000",
          "111612.917000",
          "111612.920000",
          "111612.922000",
          "111612.925000",
          "111612.928000",
          "111612.931000",
          "111612.933000",
          "111612.936000",
          "111612.939000",
          "111612.942000",
          "111612.945000",
          "111612.947000",
          "111612.950000",
          "111612.953000",
          "111612.956000",
          "111612.959000",
          "111612.961000",
          "111612.964000",
          "111612.967000",
          "111612.970000",
          "111612.972000",
          "111612.975000",
          "111612.978000",
          "111612.981000",
          "111612.983000",
          "111628.106000",
          "111628.109000",
          "111628.112000",
          "111628.114000",
          "111628.117000",
          "111628.120000"
        ],
        "InstanceCreationTime": [
          "111212.919000",
          "111212.923000",
          "111212.932000",
          "111212.934000",
          "111212.937000",
          "111212.943000",
          "111212.945000",
          "111212.948000",
          "111212.950000",
          "111212.953000",
          "111212.955000",
          "111212.958000",
          "111212.961000",
          "111212.963000",
          "111212.966000",
          "111212.968000",
          "111212.971000",
          "111212.973000",
          "111212.976000",
          "111212.979000",
          "111312.912000",
          "111312.915000",
          "111312.918000",
          "111312.921000",
          "111312.924000",
          "111312.927000",
          "111312.929000",
          "111312.932000",
          "111312.935000",
          "111312.937000",
          "111312.940000",
          "111312.943000",
          "111312.945000",
          "111312.948000",
          "111312.950000",
          "111312.953000",
          "111312.956000",
          "111312.959000",
          "111312.961000",
          "111312.964000",
          "111312.967000",
          "111312.969000",
          "111312.972000",
          "111312.975000",
          "111312.977000",
          "111312.980000",
          "111412.912000",
          "111412.915000",
          "111412.918000",
          "111412.921000",
          "111412.924000",
          "111412.927000",
          "111412.930000",
          "111412.933000",
          "111412.936000",
          "111412.938000",
          "111412.941000",
          "111412.944000",
          "111412.946000",
          "111412.949000",
          "111412.952000",
          "111412.955000",
          "111412.958000",
          "111412.961000",
          "111412.964000",
          "111412.966000",
          "111412.969000",
          "111412.972000",
          "111412.975000",
          "111412.978000",
          "111412.981000",
          "111412.984000",
          "111512.912000",
          "111512.915000",
          "111512.918000",
          "111512.920000",
          "111512.923000",
          "111512.925000",
          "111512.928000",
          "111512.931000",
          "111512.933000",
          "111512.936000",
          "111512.938000",
          "111512.941000",
          "111512.944000",
          "111512.947000",
          "111512.949000",
          "111512.952000",
          "111512.955000",
          "111512.957000",
          "111512.960000",
          "111512.963000",
          "111512.965000",
          "111512.968000",
          "111512.970000",
          "111512.973000",
          "111512.976000",
          "111612.913000",
          "111612.917000",
          "111612.920000",
          "111612.922000",
          "111612.925000",
          "111612.928000",
          "111612.931000",
          "111612.933000",
          "111612.936000",
          "111612.939000",
          "111612.942000",
          "111612.945000",
          "111612.947000",
          "111612.950000",
          "111612.953000",
          "111612.956000",
          "111612.959000",
          "111612.961000",
          "111612.964000",
          "111612.967000",
          "111612.970000",
          "111612.972000",
          "111612.975000",
          "111612.978000",
          "111612.981000",
          "111612.983000",
          "111628.106000",
          "111628.109000",
          "111628.112000",
          "111628.114000",
          "111628.117000",
          "111628.120000"
        ],
        "InstanceNumber": [
          1,
          2,
          3,
          4,
          5,
          6,
          7,
          8,
          9,
          10,
          11,
          12,
          13,
          14,
          15,
          16,
          17,
          18,
          19,
          20,
          21,
          22,
          23,
          24,
          25,
          26,
          27,
          28,
          29,
          30,
          31,
          32,
          33,
          34,
          35,
          36,
          37,
          38,
          39,
          40,
          41,
          42,
          43,
          44,
          45,
          46,
          47,
          48,
          49,
          50,
          51,
          52,
          53,
          54,
          55,
          56,
          57,
          58,
          59,
          60,
          61,
          62,
          63,
          64,
          65,
          66,
          67,
          68,
          69,
          70,
          71,
          72,
          73,
          74,
          75,
          76,
          77,
          78,
          79,
          80,
          81,
          82,
          83,
          84,
          85,
          86,
          87,
          88,
          89,
          90,
          91,
          92,
          93,
          94,
          95,
          96,
          97,
          98,
          99,
          100,
          101,
          102,
          103,
          104,
          105,
          106,
          107,
          108,
          109,
          110,
          111,
          112,
          113,
          114,
          115,
          116,
          117,
          118,
          119,
          120,
          121,
          122,
          123,
          124,
          125,
          126,
          127,
          128,
          129
        ],
        "LargestImagePixelValue": [
          2955,
          2240,
          2242,
          1957,
          2041,
          2072,
          2006,
          2312,
          2096,
          2294,
          2286,
          2072,
          2093,
          2237,
          2216,
          2173,
          2247,
          2465,
          2033,
          2347,
          2084,
          2052,
          2203,
          2096,
          2072,
          2015,
          2473,
          2134,
          2041,
          2030,
          2056,
          2044,
          2013,
          3278,
          2046,
          2013,
          2095,
          2045,
          2028,
          2448,
          1995,
          2135,
          2045,
          2273,
          2067,
          2001,
          2154,
          2030,
          2518,
          1957,
          2079,
          2326,
          2347,
          2485,
          2066,
          2004,
          2197,
          2102,
          2129,
          2446,
          2099,
          1966,
          2041,
          2677,
          1979,
          2205,
          2280,
          2014,
          2145,
          2185,
          2075,
          2021,
          2196,
          1973,
          2175,
          2026,
          2009,
          2188,
          2379,
          2071,
          2084,
          2102,
          2123,
          2085,
          2074,
          2960,
          2009,
          2053,
          2148,
          2098,
          2050,
          2132,
          2215,
          1911,
          2156,
          2036,
          2059,
          3107,
          1979,
          1984,
          2156,
          2075,
          2030,
          2306,
          1975,
          2225,
          2083,
          2038,
          2033,
          2051,
          2212,
          2086,
          2040,
          2005,
          2071,
          1963,
          2094,
          1995,
          2086,
          2054,
          2247,
          2039,
          2339,
          2048,
          2475,
          2415,
          2060,
          2093,
          2050
        ],
        "WindowCenter": [
          859.0,
          855.0,
          855.0,
          853.0,
          857.0,
          856.0,
          854.0,
          856.0,
          857.0,
          857.0,
          858.0,
          857.0,
          857.0,
          856.0,
          857.0,
          858.0,
          857.0,
          857.0,
          855.0,
          857.0,
          857.0,
          855.0,
          857.0,
          857.0,
          857.0,
          858.0,
          859.0,
          857.0,
          856.0,
          859.0,
          857.0,
          858.0,
          856.0,
          858.0,
          855.0,
          855.0,
          857.0,
          859.0,
          859.0,
          858.0,
          859.0,
          857.0,
          857.0,
          857.0,
          857.0,
          858.0,
          859.0,
          858.0,
          858.0,
          858.0,
          858.0,
          860.0,
          860.0,
          858.0,
          856.0,
          856.0,
          857.0,
          857.0,
          857.0,
          857.0,
          859.0,
          859.0,
          859.0,
          859.0,
          856.0,
          859.0,
          857.0,
          858.0,
          860.0,
          860.0,
          860.0,
          859.0,
          861.0,
          860.0,
          858.0,
          857.0,
          859.0,
          857.0,
          856.0,
          858.0,
          857.0,
          859.0,
          857.0,
          858.0,
          859.0,
          859.0,
          854.0,
          862.0,
          860.0,
          859.0,
          858.0,
          861.0,
          860.0,
          862.0,
          860.0,
          862.0,
          859.0,
          859.0,
          856.0,
          859.0,
          860.0,
          859.0,
          860.0,
          863.0,
          859.0,
          861.0,
          860.0,
          859.0,
          860.0,
          859.0,
          859.0,
          860.0,
          860.0,
          859.0,
          861.0,
          862.0,
          862.0,
          859.0,
          861.0,
          861.0,
          861.0,
          860.0,
          862.0,
          862.0,
          862.0,
          860.0,
          859.0,
          862.0,
          861.0
        ],
        "WindowWidth": [
          1819.0,
          1809.0,
          1808.0,
          1804.0,
          1813.0,
          1811.0,
          1806.0,
          1813.0,
          1812.0,
          1814.0,
          1815.0,
          1813.0,
          1811.0,
          1812.0,
          1813.0,
          1814.0,
          1813.0,
          1816.0,
          1809.0,
          1814.0,
          1813.0,
          1810.0,
          1815.0,
          1813.0,
          1813.0,
          1814.0,
          1817.0,
          1812.0,
          1809.0,
          1819.0,
          1814.0,
          1814.0,
          1810.0,
          1819.0,
          1806.0,
          1808.0,
          1814.0,
          1816.0,
          1817.0,
          1818.0,
          1816.0,
          1812.0,
          1814.0,
          1814.0,
          1812.0,
          1815.0,
          1819.0,
          1815.0,
          1815.0,
          1816.0,
          1815.0,
          1823.0,
          1821.0,
          1817.0,
          1810.0,
          1810.0,
          1813.0,
          1812.0,
          1814.0,
          1815.0,
          1817.0,
          1817.0,
          1816.0,
          1817.0,
          1810.0,
          1820.0,
          1817.0,
          1818.0,
          1822.0,
          1821.0,
          1820.0,
          1819.0,
          1823.0,
          1821.0,
          1818.0,
          1815.0,
          1819.0,
          1815.0,
          1814.0,
          1815.0,
          1812.0,
          1820.0,
          1814.0,
          1819.0,
          1819.0,
          1819.0,
          1805.0,
          1829.0,
          1820.0,
          1817.0,
          1815.0,
          1822.0,
          1821.0,
          1827.0,
          1820.0,
          1823.0,
          1817.0,
          1821.0,
          1811.0,
          1819.0,
          1824.0,
          1820.0,
          1822.0,
          1827.0,
          1818.0,
          1825.0,
          1821.0,
          1819.0,
          1820.0,
          1818.0,
          1818.0,
          1821.0,
          1820.0,
          1821.0,
          1824.0,
          1824.0,
          1826.0,
          1819.0,
          1823.0,
          1822.0,
          1823.0,
          1822.0,
          1828.0,
          1827.0,
          1827.0,
          1822.0,
          1820.0,
          1826.0,
          1824.0
        ]
      },
      "slices": {}
    }
  },
  "dummy_trs": 0,
  "dvars_nstd": 34.65897124984375,
  "dvars_std": 1.2705048626562503,
  "dvars_vstd": 1.0082756003125,
  "efc": 0.5940692533583574,
  "fber": 1735.5247802734375,
  "fd_mean": 0.3782971347486279,
  "fd_num": 97,
  "fd_perc": 75.1937984496124,
  "fwhm_avg": 1.6651575830951175,
  "fwhm_x": 1.5562966666666667,
  "fwhm_y": 1.91577,
  "fwhm_z": 1.5234060826186857,
  "gcor": 0.0456105,
  "gsr_x": -0.009608571417629719,
  "gsr_y": 0.048395805060863495,
  "provenance": {
    "md5sum": "6eeacf10a275730d7d37f06ad5cc80e4",
    "settings": {
      "fd_thres": 0.2,
      "testing": false
    },
    "software": "mriqc",
    "version": "22.0.1",
    "webapi_port": null,
    "webapi_url": "https://mriqc.nimh.nih.gov/api/v1"
  },
  "size_t": 129,
  "size_x": 64,
  "size_y": 64,
  "size_z": 34,
  "snr": 6.814115445331778,
  "spacing_tr": 2.3399999141693115,
  "spacing_x": 3.0,
  "spacing_y": 3.0,
  "spacing_z": 3.299999952316284,
  "summary_bg_k": 66.3096828407601,
  "summary_bg_mad": 9.205926258207136,
  "summary_bg_mean": 36.47718811035156,
  "summary_bg_median": 23.186046600341797,
  "summary_bg_n": 67710.0,
  "summary_bg_p05": 13.372093200683594,
  "summary_bg_p95": 98.32984771728512,
  "summary_bg_stdv": 51.39738845825195,
  "summary_fg_k": 3.913323173811584,
  "summary_fg_mad": 127.727891401475,
  "summary_fg_mean": 996.2628173828125,
  "summary_fg_median": 990.841064453125,
  "summary_fg_n": 38140.0,
  "summary_fg_p05": 796.3243988037109,
  "summary_fg_p95": 1211.2252380371094,
  "summary_fg_stdv": 145.40817260742188,
  "tsnr": 58.697156412759796
}