{
  "aor": 0.004227596899224807,
  "aqi": 0.011113966511627906,
  "bids_meta": {
    "AcquisitionMatrixPE": 64,
    "AcquisitionNumber": 1,
    "AcquisitionTime": "09:39:8.457500",
    "BandwidthPerPixelPhaseEncode": 24.038,
    "BaseResolution": 64,
    "BodyPartExamined": "HEAD",
    "ConsistencyInfo": "N4_VD13A_LATEST_20120616",
    "ConversionSoftware": "dcm2niix",
    "ConversionSoftwareVersion": "v1.0.20181125  GCC6.3.0",
    "DerivedVendorReportedEchoSpacing": 0.000650012,
    "DeviceSerialNumber": "45250",
    "DwellTime": 4.6e-06,
    "EchoTime": 0.033,
    "EchoTrainLength": 64,
    "EffectiveEchoSpacing": 0.000650012,
    "FlipAngle": 90,
    "ImageOrientationPatientDICOM": [
      0.999851,
      -0.0133314,
      -0.010987,
      0.012216,
      0.995308,
      -0.0959884
    ],
    "ImageType": [
      "ORIGINAL",
      "PRIMARY",
      "M",
      "ND",
      "NORM",
      "MOSAIC"
    ],
    "ImagingFrequency": 123.22,
    "InPlanePhaseEncodingDirectionDICOM": "COL",
    "InstitutionAddress": "Kopernikusstr._26_Graz_Graz_AT_8010",
    "InstitutionName": "KFU",
    "InstitutionalDepartmentName": "Department",
    "MRAcquisitionType": "2D",
    "MagneticFieldStrength": 3,
    "Manufacturer": "Siemens",
    "ManufacturersModelName": "Skyra",
    "Modality": "MR",
    "PartialFourier": 1,
    "PatientPosition": "HFS",
    "PercentPhaseFOV": 100,
    "PhaseEncodingDirection": "j-",
    "PhaseEncodingSteps": 64,
    "PhaseResolution": 1,
    "PixelBandwidth": 1700,
    "ProcedureStepDescription": "KFU_Entw-Psy",
    "ProtocolName": "fMRI_2",
    "PulseSequenceDetails": "%SiemensSeq%_ep2d_pace",
    "ReceiveCoilActiveElements": "HE1-4",
    "ReceiveCoilName": "HeadNeck_20",
    "ReconMatrixPE": 64,
    "RepetitionTime": 2.34,
    "SAR": 0.16005,
    "ScanOptions": "FS",
    "ScanningSequence": "EP",
    "SequenceName": "_epfid2d1_64",
    "SequenceVariant": "SK",
    "SeriesDescription": "fMRI_2",
    "SeriesNumber": 5,
    "ShimSetting": [
      -1710,
      -3660,
      -4294,
      346,
      405,
      174,
      128,
      -371
    ],
    "SliceThickness": 3,
    "SliceTiming": [
      2.2525,
      2.185,
      2.115,
      2.0475,
      1.98,
      1.91,
      1.8425,
      1.775,
      1.7075,
      1.6375,
      1.57,
      1.5025,
      1.4325,
      1.365,
      1.2975,
      1.23,
      1.16,
      1.0925,
      1.025,
      0.955,
      0.8875,
      0.82,
      0.7525,
      0.6825,
      0.615,
      0.5475,
      0.4775,
      0.41,
      0.3425,
      0.2725,
      0.205,
      0.1375,
      0.07,
      0
    ],
    "SoftwareVersions": "syngo_MR_D13",
    "SpacingBetweenSlices": 3.3,
    "StationName": "FBMTMR1",
    "TaskName": "read",
    "TotalReadoutTime": 0.0409508,
    "TxRefAmp": 331.381,
    "dataset": "ds003126",
    "dcmmeta_affine": [
      [
        -2.9995522499084473,
        0.036648139357566833,
        -0.04030996561050415,
        95.70704650878906
      ],
      [
        0.03999422863125801,
        2.985922336578369,
        -0.31627169251441956,
        -111.12930297851562
      ],
      [
        -0.03296110779047012,
        0.287965327501297,
        3.284562110900879,
        -18.81414794921875
      ],
      [
        0.0,
        0.0,
        0.0,
        1.0
      ]
    ],
    "dcmmeta_reorient_transform": [
      [
        0.0,
        -1.0,
        0.0,
        63.0
      ],
      [
        1.0,
        0.0,
        0.0,
        0.0
      ],
      [
        0.0,
        0.0,
        1.0,
        0.0
      ],
      [
        0.0,
        0.0,
        0.0,
        1.0
      ]
    ],
    "dcmmeta_shape": [
      64,
      64,
      34,
      129
    ],
    "dcmmeta_slice_dim": 2,
    "dcmmeta_version": 0.6,
    "global": {
      "const": {
        "AcquisitionMatrix": [
          64,
          0,
          0,
          64
        ],
        "AngioFlag": "N",
        "BitsAllocated": 16,
        "BitsStored": 12,
        "BodyPartExamined": "HEAD",
        "Columns": 384,
        "EchoNumbers": 1,
        "EchoTime": 33.0,
        "EchoTrainLength": 64,
        "FlipAngle": 90.0,
        "HighBit": 11,
        "ImageOrientationPatient": [
          0.99985076814678,
          -0.0133314093349,
          -0.0109870360627,
          0.01221604601678,
          0.99530748365737,
          -0.0959884430301
        ],
        "ImagePositionPatient": [
          -583.80795344404,
          -548.3323244158,
          50.675897502841
        ],
        "ImageType": [
          "ORIGINAL",
          "PRIMARY",
          "M",
          "ND",
          "NORM",
          "MOSAIC"
        ],
        "ImagedNucleus": "1H",
        "ImagingFrequency": 123.220047,
        "InPlanePhaseEncodingDirection": "COL",
        "MRAcquisitionType": "2D",
        "MagneticFieldStrength": 3.0,
        "Manufacturer": "SIEMENS",
        "ManufacturerModelName": "Skyra",
        "Modality": "MR",
        "NumberOfAverages": 1.0,
        "NumberOfPhaseEncodingSteps": 64,
        "PercentPhaseFieldOfView": 100.0,
        "PercentSampling": 100.0,
        "PerformedProcedureStepStartTime": "091953.463000",
        "PhotometricInterpretation": "MONOCHROME2",
        "PixelBandwidth": 1700.0,
        "PixelRepresentation": 0,
        "PixelSpacing": [
          3.0,
          3.0
        ],
        "ProtocolName": "fMRI_2",
        "RepetitionTime": 2340.0,
        "Rows": 384,
        "SAR": 0.16005045304088,
        "SamplesPerPixel": 1,
        "ScanOptions": "FS",
        "ScanningSequence": "EP",
        "SequenceName": "*epfid2d1_64",
        "SequenceVariant": "SK",
        "SeriesDescription": "fMRI_2",
        "SeriesNumber": 5,
        "SeriesTime": "094008.618000",
        "SliceLocation": -9.2445854931611,
        "SliceThickness": 3.0,
        "SmallestImagePixelValue": 0,
        "SoftwareVersions": "syngo MR D13",
        "SpacingBetweenSlices": 3.3000001134594,
        "SpecificCharacterSet": "ISO_IR 100",
        "StudyID": "1",
        "StudyTime": "091953.413000",
        "TransmitCoilName": "Body",
        "VariableFlipAngleFlag": "N",
        "WindowCenterWidthExplanation": "Algo1",
        "dBdt": 0.0
      },
      "slices": {}
    },
    "modality": "bold",
    "run_id": 2,
    "session_id": "2",
    "subject_id": "047EPKL011058",
    "task_id": "read",
    "time": {
      "samples": {
        "AcquisitionNumber": [
          1,
          2,
          3,
          4,
          5,
          6,
          7,
          8,
          9,
          10,
          11,
          12,
          13,
          14,
          15,
          16,
          17,
          18,
          19,
          20,
          21,
          22,
          23,
          24,
          25,
          26,
          27,
          28,
          29,
          30,
          31,
          32,
          33,
          34,
          35,
          36,
          37,
          38,
          39,
          40,
          41,
          42,
          43,
          44,
          45,
          46,
          47,
          48,
          49,
          50,
          51,
          52,
          53,
          54,
          55,
          56,
          57,
          58,
          59,
          60,
          61,
          62,
          63,
          64,
          65,
          66,
          67,
          68,
          69,
          70,
          71,
          72,
          73,
          74,
          75,
          76,
          77,
          78,
          79,
          80,
          81,
          82,
          83,
          84,
          85,
          86,
          87,
          88,
          89,
          90,
          91,
          92,
          93,
          94,
          95,
          96,
          97,
          98,
          99,
          100,
          101,
          102,
          103,
          104,
          105,
          106,
          107,
          108,
          109,
          110,
          111,
          112,
          113,
          114,
          115,
          116,
          117,
          118,
          119,
          120,
          121,
          122,
          123,
          124,
          125,
          126,
          127,
          128,
          129
        ],
        "AcquisitionTime": [
          "093908.457500",
          "093910.797500",
          "093913.137500",
          "093915.477500",
          "093917.817500",
          "093920.157500",
          "093922.497500",
          "093924.837500",
          "093927.177500",
          "093929.517500",
          "093931.857500",
          "093934.197500",
          "093936.537500",
          "093938.877500",
          "093941.217500",
          "093943.557500",
          "093945.897500",
          "093948.237500",
          "093950.577500",
          "093952.917500",
          "093955.257500",
          "093957.597500",
          "093959.937500",
          "094002.277500",
          "094004.617500",
          "094006.957500",
          "094009.297500",
          "094011.637500",
          "094013.977500",
          "094016.317500",
          "094018.657500",
          "094020.997500",
          "094023.337500",
          "094025.677500",
          "094028.017500",
          "094030.357500",
          "094032.697500",
          "094035.037500",
          "094037.377500",
          "094039.717500",
          "094042.057500",
          "094044.397500",
          "094046.737500",
          "094049.077500",
          "094051.417500",
          "094053.757500",
          "094056.097500",
          "094058.437500",
          "094100.777500",
          "094103.117500",
          "094105.457500",
          "094107.797500",
          "094110.137500",
          "094112.477500",
          "094114.817500",
          "094117.157500",
          "094119.497500",
          "094121.837500",
          "094124.177500",
          "094126.517500",
          "094128.857500",
          "094131.197500",
          "094133.537500",
          "094135.877500",
          "094138.217500",
          "094140.557500",
          "094142.897500",
          "094145.237500",
          "094147.577500",
          "094149.917500",
          "094152.257500",
          "094154.597500",
          "094156.937500",
          "094159.277500",
          "094201.617500",
          "094203.957500",
          "094206.297500",
          "094208.637500",
          "094210.977500",
          "094213.317500",
          "094215.657500",
          "094217.997500",
          "094220.337500",
          "094222.677500",
          "094225.017500",
          "094227.357500",
          "094229.697500",
          "094232.037500",
          "094234.377500",
          "094236.717500",
          "094239.057500",
          "094241.397500",
          "094243.737500",
          "094246.077500",
          "094248.417500",
          "094250.757500",
          "094253.097500",
          "094255.437500",
          "094257.777500",
          "094300.117500",
          "094302.457500",
          "094304.797500",
          "094307.137500",
          "094309.477500",
          "094311.817500",
          "094314.157500",
          "094316.497500",
          "094318.837500",
          "094321.177500",
          "094323.517500",
          "094325.857500",
          "094328.197500",
          "094330.537500",
          "094332.877500",
          "094335.217500",
          "094337.557500",
          "094339.897500",
          "094342.237500",
          "094344.577500",
          "094346.917500",
          "094349.257500",
          "094351.597500",
          "094353.937500",
          "094356.277500",
          "094358.617500",
          "094400.957500",
          "094403.297500",
          "094405.637500",
          "094407.977500"
        ],
        "ContentTime": [
          "094008.622000",
          "094008.626000",
          "094008.629000",
          "094008.632000",
          "094008.642000",
          "094008.645000",
          "094008.648000",
          "094008.651000",
          "094008.653000",
          "094008.656000",
          "094008.659000",
          "094008.662000",
          "094008.665000",
          "094008.668000",
          "094008.670000",
          "094008.673000",
          "094008.676000",
          "094008.679000",
          "094008.682000",
          "094008.685000",
          "094008.687000",
          "094008.690000",
          "094008.693000",
          "094008.696000",
          "094008.699000",
          "094008.702000",
          "094108.615000",
          "094108.618000",
          "094108.621000",
          "094108.624000",
          "094108.626000",
          "094108.629000",
          "094108.632000",
          "094108.634000",
          "094108.637000",
          "094108.639000",
          "094108.642000",
          "094108.645000",
          "094108.647000",
          "094108.650000",
          "094108.653000",
          "094108.656000",
          "094108.659000",
          "094108.662000",
          "094108.666000",
          "094108.669000",
          "094108.671000",
          "094108.674000",
          "094108.677000",
          "094108.679000",
          "094108.682000",
          "094208.616000",
          "094208.619000",
          "094208.622000",
          "094208.624000",
          "094208.627000",
          "094208.630000",
          "094208.633000",
          "094208.635000",
          "094208.638000",
          "094208.641000",
          "094208.644000",
          "094208.647000",
          "094208.650000",
          "094208.652000",
          "094208.655000",
          "094208.658000",
          "094208.661000",
          "094208.664000",
          "094208.667000",
          "094208.670000",
          "094208.672000",
          "094208.675000",
          "094208.678000",
          "094208.681000",
          "094208.684000",
          "094208.686000",
          "094308.615000",
          "094308.619000",
          "094308.621000",
          "094308.624000",
          "094308.626000",
          "094308.629000",
          "094308.632000",
          "094308.634000",
          "094308.642000",
          "094308.645000",
          "094308.648000",
          "094308.651000",
          "094308.653000",
          "094308.656000",
          "094308.659000",
          "094308.662000",
          "094308.665000",
          "094308.668000",
          "094308.671000",
          "094308.673000",
          "094308.676000",
          "094308.679000",
          "094308.682000",
          "094308.685000",
          "094308.688000",
          "094308.691000",
          "094408.615000",
          "094408.618000",
          "094408.621000",
          "094408.624000",
          "094408.627000",
          "094408.630000",
          "094408.632000",
          "094408.635000",
          "094408.637000",
          "094408.640000",
          "094408.646000",
          "094408.649000",
          "094408.652000",
          "094408.655000",
          "094408.658000",
          "094408.661000",
          "094408.664000",
          "094408.666000",
          "094408.669000",
          "094408.672000",
          "094408.675000",
          "094408.678000",
          "094408.680000",
          "094408.683000",
          "094408.686000",
          "094410.957000"
        ],
        "InstanceCreationTime": [
          "094008.622000",
          "094008.626000",
          "094008.629000",
          "094008.632000",
          "094008.642000",
          "094008.645000",
          "094008.648000",
          "094008.651000",
          "094008.653000",
          "094008.656000",
          "094008.659000",
          "094008.662000",
          "094008.665000",
          "094008.668000",
          "094008.670000",
          "094008.673000",
          "094008.676000",
          "094008.679000",
          "094008.682000",
          "094008.685000",
          "094008.687000",
          "094008.690000",
          "094008.693000",
          "094008.696000",
          "094008.699000",
          "094008.702000",
          "094108.615000",
          "094108.618000",
          "094108.621000",
          "094108.624000",
          "094108.626000",
          "094108.629000",
          "094108.632000",
          "094108.634000",
          "094108.637000",
          "094108.639000",
          "094108.642000",
          "094108.645000",
          "094108.647000",
          "094108.650000",
          "094108.653000",
          "094108.656000",
          "094108.659000",
          "094108.662000",
          "094108.666000",
          "094108.669000",
          "094108.671000",
          "094108.674000",
          "094108.677000",
          "094108.679000",
          "094108.682000",
          "094208.616000",
          "094208.619000",
          "094208.622000",
          "094208.624000",
          "094208.627000",
          "094208.630000",
          "094208.633000",
          "094208.635000",
          "094208.638000",
          "094208.641000",
          "094208.644000",
          "094208.647000",
          "094208.650000",
          "094208.652000",
          "094208.655000",
          "094208.658000",
          "094208.661000",
          "094208.664000",
          "094208.667000",
          "094208.670000",
          "094208.672000",
          "094208.675000",
          "094208.678000",
          "094208.681000",
          "094208.684000",
          "094208.686000",
          "094308.615000",
          "094308.619000",
          "094308.621000",
          "094308.624000",
          "094308.626000",
          "094308.629000",
          "094308.632000",
          "094308.634000",
          "094308.642000",
          "094308.645000",
          "094308.648000",
          "094308.651000",
          "094308.653000",
          "094308.656000",
          "094308.659000",
          "094308.662000",
          "094308.665000",
          "094308.668000",
          "094308.671000",
          "094308.673000",
          "094308.676000",
          "094308.679000",
          "094308.682000",
          "094308.685000",
          "094308.688000",
          "094308.691000",
          "094408.615000",
          "094408.618000",
          "094408.621000",
          "094408.624000",
          "094408.627000",
          "094408.630000",
          "094408.632000",
          "094408.635000",
          "094408.637000",
          "094408.640000",
          "094408.646000",
          "094408.649000",
          "094408.652000",
          "094408.655000",
          "094408.658000",
          "094408.661000",
          "094408.664000",
          "094408.666000",
          "094408.669000",
          "094408.672000",
          "094408.675000",
          "094408.678000",
          "094408.680000",
          "094408.683000",
          "094408.686000",
          "094410.957000"
        ],
        "InstanceNumber": [
          1,
          2,
          3,
          4,
          5,
          6,
          7,
          8,
          9,
          10,
          11,
          12,
          13,
          14,
          15,
          16,
          17,
          18,
          19,
          20,
          21,
          22,
          23,
          24,
          25,
          26,
          27,
          28,
          29,
          30,
          31,
          32,
          33,
          34,
          35,
          36,
          37,
          38,
          39,
          40,
          41,
          42,
          43,
          44,
          45,
          46,
          47,
          48,
          49,
          50,
          51,
          52,
          53,
          54,
          55,
          56,
          57,
          58,
          59,
          60,
          61,
          62,
          63,
          64,
          65,
          66,
          67,
          68,
          69,
          70,
          71,
          72,
          73,
          74,
          75,
          76,
          77,
          78,
          79,
          80,
          81,
          82,
          83,
          84,
          85,
          86,
          87,
          88,
          89,
          90,
          91,
          92,
          93,
          94,
          95,
          96,
          97,
          98,
          99,
          100,
          101,
          102,
          103,
          104,
          105,
          106,
          107,
          108,
          109,
          110,
          111,
          112,
          113,
          114,
          115,
          116,
          117,
          118,
          119,
          120,
          121,
          122,
          123,
          124,
          125,
          126,
          127,
          128,
          129
        ],
        "LargestImagePixelValue": [
          1764,
          1712,
          1747,
          1671,
          1669,
          1658,
          1701,
          1754,
          1747,
          1692,
          1625,
          1770,
          1751,
          1753,
          1653,
          1681,
          1669,
          1923,
          1793,
          1802,
          1687,
          1811,
          1786,
          1706,
          1692,
          1701,
          1664,
          1679,
          1632,
          1784,
          1675,
          1680,
          1695,
          1677,
          1747,
          1719,
          1710,
          1648,
          1700,
          1755,
          1784,
          1776,
          1705,
          1726,
          1691,
          1735,
          1647,
          1731,
          1698,
          1695,
          1687,
          1771,
          1743,
          1744,
          1671,
          1684,
          1707,
          1749,
          1766,
          1818,
          1700,
          1702,
          1659,
          1785,
          1774,
          1679,
          1659,
          1674,
          1786,
          1665,
          1632,
          1773,
          1685,
          1721,
          1769,
          1721,
          1774,
          1689,
          1793,
          1665,
          1690,
          1764,
          1681,
          1680,
          1782,
          1711,
          1685,
          1787,
          1718,
          1664,
          1659,
          1801,
          1729,
          1757,
          1705,
          1676,
          1726,
          1671,
          1809,
          1759,
          1758,
          1751,
          1716,
          1703,
          1677,
          1731,
          1784,
          1778,
          1691,
          1655,
          1698,
          1704,
          1729,
          1790,
          1757,
          1682,
          1665,
          1730,
          1658,
          1760,
          1719,
          1777,
          1747,
          1679,
          1670,
          1800,
          1681,
          1728,
          1699
        ],
        "WindowCenter": [
          777.0,
          775.0,
          775.0,
          776.0,
          776.0,
          776.0,
          775.0,
          774.0,
          774.0,
          776.0,
          778.0,
          779.0,
          776.0,
          775.0,
          776.0,
          780.0,
          776.0,
          775.0,
          769.0,
          769.0,
          772.0,
          775.0,
          775.0,
          777.0,
          777.0,
          778.0,
          777.0,
          778.0,
          777.0,
          778.0,
          780.0,
          779.0,
          777.0,
          778.0,
          781.0,
          780.0,
          777.0,
          777.0,
          780.0,
          782.0,
          782.0,
          780.0,
          779.0,
          777.0,
          778.0,
          778.0,
          776.0,
          777.0,
          780.0,
          777.0,
          777.0,
          780.0,
          780.0,
          780.0,
          780.0,
          779.0,
          782.0,
          781.0,
          778.0,
          776.0,
          776.0,
          777.0,
          778.0,
          781.0,
          782.0,
          781.0,
          782.0,
          783.0,
          781.0,
          779.0,
          780.0,
          780.0,
          781.0,
          781.0,
          782.0,
          781.0,
          781.0,
          779.0,
          779.0,
          780.0,
          780.0,
          780.0,
          778.0,
          781.0,
          781.0,
          780.0,
          782.0,
          783.0,
          782.0,
          781.0,
          782.0,
          784.0,
          781.0,
          784.0,
          781.0,
          780.0,
          782.0,
          783.0,
          783.0,
          782.0,
          779.0,
          781.0,
          780.0,
          782.0,
          782.0,
          780.0,
          783.0,
          781.0,
          782.0,
          782.0,
          781.0,
          783.0,
          784.0,
          783.0,
          782.0,
          783.0,
          785.0,
          784.0,
          782.0,
          783.0,
          782.0,
          782.0,
          783.0,
          782.0,
          783.0,
          784.0,
          783.0,
          783.0,
          784.0
        ],
        "WindowWidth": [
          1655.0,
          1650.0,
          1650.0,
          1652.0,
          1653.0,
          1653.0,
          1649.0,
          1649.0,
          1646.0,
          1654.0,
          1657.0,
          1662.0,
          1653.0,
          1650.0,
          1655.0,
          1661.0,
          1652.0,
          1652.0,
          1634.0,
          1635.0,
          1642.0,
          1651.0,
          1650.0,
          1657.0,
          1656.0,
          1659.0,
          1654.0,
          1658.0,
          1655.0,
          1661.0,
          1662.0,
          1661.0,
          1656.0,
          1659.0,
          1664.0,
          1664.0,
          1657.0,
          1655.0,
          1662.0,
          1669.0,
          1668.0,
          1665.0,
          1661.0,
          1656.0,
          1658.0,
          1657.0,
          1652.0,
          1655.0,
          1663.0,
          1656.0,
          1655.0,
          1664.0,
          1664.0,
          1663.0,
          1663.0,
          1661.0,
          1670.0,
          1666.0,
          1658.0,
          1652.0,
          1652.0,
          1655.0,
          1656.0,
          1665.0,
          1668.0,
          1664.0,
          1668.0,
          1670.0,
          1665.0,
          1661.0,
          1663.0,
          1664.0,
          1665.0,
          1667.0,
          1667.0,
          1665.0,
          1666.0,
          1660.0,
          1662.0,
          1662.0,
          1663.0,
          1664.0,
          1662.0,
          1666.0,
          1666.0,
          1663.0,
          1669.0,
          1672.0,
          1667.0,
          1666.0,
          1670.0,
          1674.0,
          1667.0,
          1673.0,
          1666.0,
          1663.0,
          1666.0,
          1671.0,
          1670.0,
          1667.0,
          1662.0,
          1665.0,
          1663.0,
          1669.0,
          1668.0,
          1664.0,
          1670.0,
          1667.0,
          1667.0,
          1668.0,
          1667.0,
          1671.0,
          1673.0,
          1670.0,
          1669.0,
          1673.0,
          1676.0,
          1675.0,
          1670.0,
          1672.0,
          1668.0,
          1668.0,
          1672.0,
          1670.0,
          1671.0,
          1673.0,
          1671.0,
          1672.0,
          1674.0
        ]
      },
      "slices": {}
    }
  },
  "dummy_trs": 0,
  "dvars_nstd": 33.86941845687501,
  "dvars_std": 1.284532495390625,
  "dvars_vstd": 1.0420346519531243,
  "efc": 0.5569540411227105,
  "fber": 1658.43603515625,
  "fd_mean": 0.47120983694577095,
  "fd_num": 105,
  "fd_perc": 81.3953488372093,
  "fwhm_avg": 1.6377254250791093,
  "fwhm_x": 1.5104933333333335,
  "fwhm_y": 1.8732466666666667,
  "fwhm_z": 1.5294362752373276,
  "gcor": 0.106297,
  "gsr_x": -0.014696353115141392,
  "gsr_y": 0.050254810601472855,
  "provenance": {
    "md5sum": "a323658c382acde589c9ffecb447ba1e",
    "settings": {
      "fd_thres": 0.2,
      "testing": false
    },
    "software": "mriqc",
    "version": "22.0.1",
    "webapi_port": null,
    "webapi_url": "https://mriqc.nimh.nih.gov/api/v1"
  },
  "size_t": 129,
  "size_x": 64,
  "size_y": 64,
  "size_z": 34,
  "snr": 6.887951017539802,
  "spacing_tr": 2.3399999141693115,
  "spacing_x": 3.0,
  "spacing_y": 3.0,
  "spacing_z": 3.3000001907348633,
  "summary_bg_k": 52.97263459369348,
  "summary_bg_mad": 8.711724576092163,
  "summary_bg_mean": 36.613136291503906,
  "summary_bg_median": 21.9224796295166,
  "summary_bg_n": 75200.0,
  "summary_bg_p05": 13.0,
  "summary_bg_p95": 98.12441864013674,
  "summary_bg_stdv": 56.66705322265625,
  "summary_fg_k": 1.817247393322348,
  "summary_fg_mad": 136.82462064455382,
  "summary_fg_mean": 910.22607421875,
  "summary_fg_median": 909.8914794921875,
  "summary_fg_n": 31729.0,
  "summary_fg_p05": 716.5690185546875,
  "summary_fg_p95": 1107.7875732421876,
  "summary_fg_stdv": 132.096923828125,
  "tsnr": 55.9998550824821
}