{
  "aor": 0.003950077519379845,
  "aqi": 0.014918053565891473,
  "bids_meta": {
    "AcquisitionMatrixPE": 64,
    "AcquisitionNumber": 1,
    "AcquisitionTime": "09:33:5.317500",
    "BandwidthPerPixelPhaseEncode": 24.038,
    "BaseResolution": 64,
    "BodyPartExamined": "HEAD",
    "ConsistencyInfo": "N4_VD13A_LATEST_20120616",
    "ConversionSoftware": "dcm2niix",
    "ConversionSoftwareVersion": "v1.0.20181125  GCC6.3.0",
    "DerivedVendorReportedEchoSpacing": 0.000650012,
    "DeviceSerialNumber": "45250",
    "DwellTime": 4.6e-06,
    "EchoTime": 0.033,
    "EchoTrainLength": 64,
    "EffectiveEchoSpacing": 0.000650012,
    "FlipAngle": 90,
    "ImageOrientationPatientDICOM": [
      0.999851,
      -0.0133314,
      -0.010987,
      0.012216,
      0.995308,
      -0.0959884
    ],
    "ImageType": [
      "ORIGINAL",
      "PRIMARY",
      "M",
      "ND",
      "NORM",
      "MOSAIC"
    ],
    "ImagingFrequency": 123.22,
    "InPlanePhaseEncodingDirectionDICOM": "COL",
    "InstitutionAddress": "Kopernikusstr._26_Graz_Graz_AT_8010",
    "InstitutionName": "KFU",
    "InstitutionalDepartmentName": "Department",
    "MRAcquisitionType": "2D",
    "MagneticFieldStrength": 3,
    "Manufacturer": "Siemens",
    "ManufacturersModelName": "Skyra",
    "Modality": "MR",
    "PartialFourier": 1,
    "PatientPosition": "HFS",
    "PercentPhaseFOV": 100,
    "PhaseEncodingDirection": "j-",
    "PhaseEncodingSteps": 64,
    "PhaseResolution": 1,
    "PixelBandwidth": 1700,
    "ProcedureStepDescription": "KFU_Entw-Psy",
    "ProtocolName": "fMRI_1",
    "PulseSequenceDetails": "%SiemensSeq%_ep2d_pace",
    "ReceiveCoilActiveElements": "HE1-4",
    "ReceiveCoilName": "HeadNeck_20",
    "ReconMatrixPE": 64,
    "RepetitionTime": 2.34,
    "SAR": 0.16005,
    "ScanOptions": "FS",
    "ScanningSequence": "EP",
    "SequenceName": "_epfid2d1_64",
    "SequenceVariant": "SK",
    "SeriesDescription": "fMRI_1",
    "SeriesNumber": 2,
    "ShimSetting": [
      -1710,
      -3660,
      -4294,
      346,
      405,
      174,
      128,
      -371
    ],
    "SliceThickness": 3,
    "SliceTiming": [
      2.25,
      2.1825,
      2.115,
      2.0475,
      1.9775,
      1.91,
      1.8425,
      1.7725,
      1.705,
      1.6375,
      1.57,
      1.5,
      1.4325,
      1.365,
      1.295,
      1.2275,
      1.16,
      1.09,
      1.0225,
      0.955,
      0.8875,
      0.8175,
      0.75,
      0.6825,
      0.6125,
      0.545,
      0.4775,
      0.41,
      0.34,
      0.2725,
      0.205,
      0.135,
      0.0675,
      0
    ],
    "SoftwareVersions": "syngo_MR_D13",
    "SpacingBetweenSlices": 3.3,
    "StationName": "FBMTMR1",
    "TaskName": "read",
    "TotalReadoutTime": 0.0409508,
    "TxRefAmp": 331.381,
    "dataset": "ds003126",
    "dcmmeta_affine": [
      [
        -2.9995522499084473,
        0.036648139357566833,
        -0.04030996561050415,
        95.70704650878906
      ],
      [
        0.03999422863125801,
        2.985922336578369,
        -0.31627169251441956,
        -111.12930297851562
      ],
      [
        -0.03296110779047012,
        0.287965327501297,
        3.284562110900879,
        -18.81414794921875
      ],
      [
        0.0,
        0.0,
        0.0,
        1.0
      ]
    ],
    "dcmmeta_reorient_transform": [
      [
        0.0,
        -1.0,
        0.0,
        63.0
      ],
      [
        1.0,
        0.0,
        0.0,
        0.0
      ],
      [
        0.0,
        0.0,
        1.0,
        0.0
      ],
      [
        0.0,
        0.0,
        0.0,
        1.0
      ]
    ],
    "dcmmeta_shape": [
      64,
      64,
      34,
      129
    ],
    "dcmmeta_slice_dim": 2,
    "dcmmeta_version": 0.6,
    "global": {
      "const": {
        "AcquisitionMatrix": [
          64,
          0,
          0,
          64
        ],
        "AngioFlag": "N",
        "BitsAllocated": 16,
        "BitsStored": 12,
        "BodyPartExamined": "HEAD",
        "Columns": 384,
        "EchoNumbers": 1,
        "EchoTime": 33.0,
        "EchoTrainLength": 64,
        "FlipAngle": 90.0,
        "HighBit": 11,
        "ImageOrientationPatient": [
          0.99985076814678,
          -0.0133314093349,
          -0.0109870360627,
          0.01221604601678,
          0.99530748365737,
          -0.0959884430301
        ],
        "ImagePositionPatient": [
          -583.80795344404,
          -548.3323244158,
          50.675897502841
        ],
        "ImageType": [
          "ORIGINAL",
          "PRIMARY",
          "M",
          "ND",
          "NORM",
          "MOSAIC"
        ],
        "ImagedNucleus": "1H",
        "ImagingFrequency": 123.220038,
        "InPlanePhaseEncodingDirection": "COL",
        "MRAcquisitionType": "2D",
        "MagneticFieldStrength": 3.0,
        "Manufacturer": "SIEMENS",
        "ManufacturerModelName": "Skyra",
        "Modality": "MR",
        "NumberOfAverages": 1.0,
        "NumberOfPhaseEncodingSteps": 64,
        "PercentPhaseFieldOfView": 100.0,
        "PercentSampling": 100.0,
        "PerformedProcedureStepStartTime": "091953.463000",
        "PhotometricInterpretation": "MONOCHROME2",
        "PixelBandwidth": 1700.0,
        "PixelRepresentation": 0,
        "PixelSpacing": [
          3.0,
          3.0
        ],
        "ProtocolName": "fMRI_1",
        "RepetitionTime": 2340.0,
        "Rows": 384,
        "SAR": 0.16005045304088,
        "SamplesPerPixel": 1,
        "ScanOptions": "FS",
        "ScanningSequence": "EP",
        "SequenceName": "*epfid2d1_64",
        "SequenceVariant": "SK",
        "SeriesDescription": "fMRI_1",
        "SeriesNumber": 2,
        "SeriesTime": "093401.158000",
        "SliceLocation": -9.2445854931611,
        "SliceThickness": 3.0,
        "SmallestImagePixelValue": 0,
        "SoftwareVersions": "syngo MR D13",
        "SpacingBetweenSlices": 3.3000001134594,
        "SpecificCharacterSet": "ISO_IR 100",
        "StudyID": "1",
        "StudyTime": "091953.413000",
        "TransmitCoilName": "Body",
        "VariableFlipAngleFlag": "N",
        "WindowCenterWidthExplanation": "Algo1",
        "dBdt": 0.0
      },
      "slices": {}
    },
    "modality": "bold",
    "run_id": 1,
    "session_id": "2",
    "subject_id": "047EPKL011058",
    "task_id": "read",
    "time": {
      "samples": {
        "AcquisitionNumber": [
          1,
          2,
          3,
          4,
          5,
          6,
          7,
          8,
          9,
          10,
          11,
          12,
          13,
          14,
          15,
          16,
          17,
          18,
          19,
          20,
          21,
          22,
          23,
          24,
          25,
          26,
          27,
          28,
          29,
          30,
          31,
          32,
          33,
          34,
          35,
          36,
          37,
          38,
          39,
          40,
          41,
          42,
          43,
          44,
          45,
          46,
          47,
          48,
          49,
          50,
          51,
          52,
          53,
          54,
          55,
          56,
          57,
          58,
          59,
          60,
          61,
          62,
          63,
          64,
          65,
          66,
          67,
          68,
          69,
          70,
          71,
          72,
          73,
          74,
          75,
          76,
          77,
          78,
          79,
          80,
          81,
          82,
          83,
          84,
          85,
          86,
          87,
          88,
          89,
          90,
          91,
          92,
          93,
          94,
          95,
          96,
          97,
          98,
          99,
          100,
          101,
          102,
          103,
          104,
          105,
          106,
          107,
          108,
          109,
          110,
          111,
          112,
          113,
          114,
          115,
          116,
          117,
          118,
          119,
          120,
          121,
          122,
          123,
          124,
          125,
          126,
          127,
          128,
          129
        ],
        "AcquisitionTime": [
          "093305.317500",
          "093307.657500",
          "093309.997500",
          "093312.337500",
          "093314.677500",
          "093317.017500",
          "093319.357500",
          "093321.697500",
          "093324.037500",
          "093326.377500",
          "093328.717500",
          "093331.057500",
          "093333.397500",
          "093335.737500",
          "093338.077500",
          "093340.417500",
          "093342.757500",
          "093345.097500",
          "093347.437500",
          "093349.777500",
          "093352.117500",
          "093354.457500",
          "093356.797500",
          "093359.137500",
          "093401.477500",
          "093403.817500",
          "093406.157500",
          "093408.497500",
          "093410.837500",
          "093413.177500",
          "093415.517500",
          "093417.857500",
          "093420.197500",
          "093422.537500",
          "093424.877500",
          "093427.217500",
          "093429.557500",
          "093431.897500",
          "093434.237500",
          "093436.577500",
          "093438.917500",
          "093441.257500",
          "093443.597500",
          "093445.937500",
          "093448.277500",
          "093450.617500",
          "093452.957500",
          "093455.297500",
          "093457.637500",
          "093459.977500",
          "093502.317500",
          "093504.657500",
          "093506.997500",
          "093509.337500",
          "093511.677500",
          "093514.017500",
          "093516.357500",
          "093518.697500",
          "093521.037500",
          "093523.377500",
          "093525.717500",
          "093528.057500",
          "093530.397500",
          "093532.737500",
          "093535.077500",
          "093537.417500",
          "093539.757500",
          "093542.097500",
          "093544.437500",
          "093546.777500",
          "093549.117500",
          "093551.457500",
          "093553.797500",
          "093556.137500",
          "093558.477500",
          "093600.817500",
          "093603.157500",
          "093605.497500",
          "093607.837500",
          "093610.177500",
          "093612.517500",
          "093614.857500",
          "093617.197500",
          "093619.537500",
          "093621.877500",
          "093624.217500",
          "093626.557500",
          "093628.897500",
          "093631.237500",
          "093633.577500",
          "093635.917500",
          "093638.257500",
          "093640.597500",
          "093642.937500",
          "093645.277500",
          "093647.617500",
          "093649.957500",
          "093652.297500",
          "093654.637500",
          "093656.977500",
          "093659.317500",
          "093701.657500",
          "093703.997500",
          "093706.337500",
          "093708.677500",
          "093711.017500",
          "093713.357500",
          "093715.697500",
          "093718.037500",
          "093720.377500",
          "093722.717500",
          "093725.057500",
          "093727.397500",
          "093729.737500",
          "093732.077500",
          "093734.417500",
          "093736.757500",
          "093739.097500",
          "093741.437500",
          "093743.777500",
          "093746.117500",
          "093748.457500",
          "093750.797500",
          "093753.137500",
          "093755.477500",
          "093757.817500",
          "093800.157500",
          "093802.497500",
          "093804.837500"
        ],
        "ContentTime": [
          "093401.162000",
          "093401.166000",
          "093401.169000",
          "093401.172000",
          "093401.174000",
          "093401.177000",
          "093401.180000",
          "093401.182000",
          "093401.185000",
          "093401.188000",
          "093401.190000",
          "093401.193000",
          "093401.196000",
          "093401.198000",
          "093401.201000",
          "093401.204000",
          "093401.206000",
          "093401.209000",
          "093401.212000",
          "093401.215000",
          "093401.217000",
          "093401.220000",
          "093401.222000",
          "093401.225000",
          "093501.155000",
          "093501.158000",
          "093501.161000",
          "093501.163000",
          "093501.166000",
          "093501.168000",
          "093501.171000",
          "093501.174000",
          "093501.176000",
          "093501.179000",
          "093501.182000",
          "093501.185000",
          "093501.187000",
          "093501.190000",
          "093501.193000",
          "093501.195000",
          "093501.198000",
          "093501.201000",
          "093501.203000",
          "093501.206000",
          "093501.209000",
          "093501.211000",
          "093501.214000",
          "093501.216000",
          "093501.219000",
          "093501.221000",
          "093601.156000",
          "093601.159000",
          "093601.161000",
          "093601.164000",
          "093601.166000",
          "093601.169000",
          "093601.171000",
          "093601.174000",
          "093601.177000",
          "093601.179000",
          "093601.182000",
          "093601.184000",
          "093601.187000",
          "093601.190000",
          "093601.192000",
          "093601.195000",
          "093601.198000",
          "093601.201000",
          "093601.203000",
          "093601.206000",
          "093601.209000",
          "093601.211000",
          "093601.214000",
          "093601.217000",
          "093601.220000",
          "093701.154000",
          "093701.157000",
          "093701.160000",
          "093701.163000",
          "093701.166000",
          "093701.169000",
          "093701.171000",
          "093701.174000",
          "093701.177000",
          "093701.180000",
          "093701.183000",
          "093701.185000",
          "093701.192000",
          "093701.195000",
          "093701.198000",
          "093701.201000",
          "093701.204000",
          "093701.207000",
          "093701.209000",
          "093701.212000",
          "093701.215000",
          "093701.218000",
          "093701.221000",
          "093701.224000",
          "093701.226000",
          "093701.229000",
          "093801.154000",
          "093801.157000",
          "093801.160000",
          "093801.162000",
          "093801.165000",
          "093801.168000",
          "093801.171000",
          "093801.174000",
          "093801.176000",
          "093801.179000",
          "093801.182000",
          "093801.185000",
          "093801.187000",
          "093801.190000",
          "093801.193000",
          "093801.196000",
          "093801.199000",
          "093801.202000",
          "093801.204000",
          "093801.207000",
          "093801.210000",
          "093801.213000",
          "093801.216000",
          "093801.218000",
          "093801.221000",
          "093801.224000",
          "093807.102000",
          "093807.105000"
        ],
        "InstanceCreationTime": [
          "093401.162000",
          "093401.166000",
          "093401.169000",
          "093401.172000",
          "093401.174000",
          "093401.177000",
          "093401.180000",
          "093401.182000",
          "093401.185000",
          "093401.188000",
          "093401.190000",
          "093401.193000",
          "093401.196000",
          "093401.198000",
          "093401.201000",
          "093401.204000",
          "093401.206000",
          "093401.209000",
          "093401.212000",
          "093401.215000",
          "093401.217000",
          "093401.220000",
          "093401.222000",
          "093401.225000",
          "093501.155000",
          "093501.158000",
          "093501.161000",
          "093501.163000",
          "093501.166000",
          "093501.168000",
          "093501.171000",
          "093501.174000",
          "093501.176000",
          "093501.179000",
          "093501.182000",
          "093501.185000",
          "093501.187000",
          "093501.190000",
          "093501.193000",
          "093501.195000",
          "093501.198000",
          "093501.201000",
          "093501.203000",
          "093501.206000",
          "093501.209000",
          "093501.211000",
          "093501.214000",
          "093501.216000",
          "093501.219000",
          "093501.221000",
          "093601.156000",
          "093601.159000",
          "093601.161000",
          "093601.164000",
          "093601.166000",
          "093601.169000",
          "093601.171000",
          "093601.174000",
          "093601.177000",
          "093601.179000",
          "093601.182000",
          "093601.184000",
          "093601.187000",
          "093601.190000",
          "093601.192000",
          "093601.195000",
          "093601.198000",
          "093601.201000",
          "093601.203000",
          "093601.206000",
          "093601.209000",
          "093601.211000",
          "093601.214000",
          "093601.217000",
          "093601.220000",
          "093701.154000",
          "093701.157000",
          "093701.160000",
          "093701.163000",
          "093701.166000",
          "093701.169000",
          "093701.171000",
          "093701.174000",
          "093701.177000",
          "093701.180000",
          "093701.183000",
          "093701.185000",
          "093701.192000",
          "093701.195000",
          "093701.198000",
          "093701.201000",
          "093701.204000",
          "093701.207000",
          "093701.209000",
          "093701.212000",
          "093701.215000",
          "093701.218000",
          "093701.221000",
          "093701.224000",
          "093701.226000",
          "093701.229000",
          "093801.154000",
          "093801.157000",
          "093801.160000",
          "093801.162000",
          "093801.165000",
          "093801.168000",
          "093801.171000",
          "093801.174000",
          "093801.176000",
          "093801.179000",
          "093801.182000",
          "093801.185000",
          "093801.187000",
          "093801.190000",
          "093801.193000",
          "093801.196000",
          "093801.199000",
          "093801.202000",
          "093801.204000",
          "093801.207000",
          "093801.210000",
          "093801.213000",
          "093801.216000",
          "093801.218000",
          "093801.221000",
          "093801.224000",
          "093807.102000",
          "093807.105000"
        ],
        "InstanceNumber": [
          1,
          2,
          3,
          4,
          5,
          6,
          7,
          8,
          9,
          10,
          11,
          12,
          13,
          14,
          15,
          16,
          17,
          18,
          19,
          20,
          21,
          22,
          23,
          24,
          25,
          26,
          27,
          28,
          29,
          30,
          31,
          32,
          33,
          34,
          35,
          36,
          37,
          38,
          39,
          40,
          41,
          42,
          43,
          44,
          45,
          46,
          47,
          48,
          49,
          50,
          51,
          52,
          53,
          54,
          55,
          56,
          57,
          58,
          59,
          60,
          61,
          62,
          63,
          64,
          65,
          66,
          67,
          68,
          69,
          70,
          71,
          72,
          73,
          74,
          75,
          76,
          77,
          78,
          79,
          80,
          81,
          82,
          83,
          84,
          85,
          86,
          87,
          88,
          89,
          90,
          91,
          92,
          93,
          94,
          95,
          96,
          97,
          98,
          99,
          100,
          101,
          102,
          103,
          104,
          105,
          106,
          107,
          108,
          109,
          110,
          111,
          112,
          113,
          114,
          115,
          116,
          117,
          118,
          119,
          120,
          121,
          122,
          123,
          124,
          125,
          126,
          127,
          128,
          129
        ],
        "LargestImagePixelValue": [
          1764,
          1679,
          1728,
          1875,
          1732,
          1641,
          1758,
          1738,
          1617,
          1692,
          1774,
          1758,
          1688,
          1651,
          1723,
          1706,
          1703,
          1695,
          1707,
          1627,
          1730,
          1676,
          1715,
          1637,
          1683,
          1640,
          1698,
          1665,
          1704,
          1688,
          1753,
          1709,
          1604,
          1782,
          1742,
          1749,
          1623,
          1652,
          1733,
          1639,
          1766,
          1743,
          1933,
          2002,
          1839,
          1776,
          1621,
          1639,
          1599,
          1751,
          1642,
          1733,
          1631,
          1727,
          1705,
          1721,
          1785,
          1716,
          1694,
          1645,
          1678,
          1846,
          1859,
          1691,
          1776,
          1737,
          1680,
          1744,
          1644,
          1732,
          1734,
          1683,
          1634,
          1706,
          1655,
          1685,
          1707,
          1686,
          1670,
          1693,
          1682,
          1671,
          1677,
          1654,
          1693,
          1764,
          1651,
          1871,
          1807,
          1661,
          1644,
          1730,
          1718,
          1650,
          1769,
          1720,
          1729,
          1655,
          1708,
          1695,
          1694,
          1638,
          1663,
          1736,
          1745,
          1659,
          1803,
          1784,
          1831,
          1818,
          1691,
          1728,
          1646,
          1714,
          1639,
          1755,
          1656,
          1751,
          1663,
          1682,
          1693,
          1735,
          1659,
          1709,
          1665,
          1664,
          1692,
          1775,
          1654
        ],
        "WindowCenter": [
          776.0,
          775.0,
          779.0,
          777.0,
          776.0,
          774.0,
          775.0,
          776.0,
          773.0,
          779.0,
          778.0,
          778.0,
          777.0,
          777.0,
          776.0,
          778.0,
          776.0,
          775.0,
          777.0,
          776.0,
          776.0,
          776.0,
          777.0,
          776.0,
          777.0,
          777.0,
          777.0,
          778.0,
          779.0,
          777.0,
          776.0,
          779.0,
          777.0,
          778.0,
          774.0,
          777.0,
          776.0,
          776.0,
          779.0,
          777.0,
          779.0,
          780.0,
          780.0,
          776.0,
          776.0,
          774.0,
          774.0,
          775.0,
          778.0,
          776.0,
          776.0,
          776.0,
          777.0,
          779.0,
          779.0,
          782.0,
          777.0,
          777.0,
          775.0,
          777.0,
          780.0,
          779.0,
          779.0,
          775.0,
          776.0,
          778.0,
          777.0,
          780.0,
          780.0,
          786.0,
          780.0,
          779.0,
          778.0,
          781.0,
          779.0,
          780.0,
          781.0,
          781.0,
          781.0,
          780.0,
          780.0,
          780.0,
          780.0,
          781.0,
          783.0,
          781.0,
          778.0,
          780.0,
          779.0,
          778.0,
          779.0,
          780.0,
          781.0,
          782.0,
          783.0,
          782.0,
          781.0,
          780.0,
          782.0,
          783.0,
          781.0,
          781.0,
          781.0,
          785.0,
          784.0,
          782.0,
          785.0,
          782.0,
          781.0,
          782.0,
          782.0,
          782.0,
          783.0,
          782.0,
          782.0,
          785.0,
          782.0,
          782.0,
          782.0,
          784.0,
          783.0,
          785.0,
          782.0,
          785.0,
          785.0,
          785.0,
          784.0,
          783.0,
          783.0
        ],
        "WindowWidth": [
          1655.0,
          1652.0,
          1663.0,
          1657.0,
          1655.0,
          1649.0,
          1652.0,
          1654.0,
          1647.0,
          1662.0,
          1661.0,
          1662.0,
          1657.0,
          1657.0,
          1656.0,
          1659.0,
          1655.0,
          1652.0,
          1658.0,
          1655.0,
          1657.0,
          1655.0,
          1659.0,
          1654.0,
          1660.0,
          1657.0,
          1658.0,
          1660.0,
          1662.0,
          1658.0,
          1656.0,
          1663.0,
          1657.0,
          1658.0,
          1649.0,
          1658.0,
          1656.0,
          1656.0,
          1662.0,
          1658.0,
          1663.0,
          1666.0,
          1667.0,
          1658.0,
          1655.0,
          1650.0,
          1651.0,
          1654.0,
          1661.0,
          1655.0,
          1656.0,
          1656.0,
          1658.0,
          1663.0,
          1665.0,
          1670.0,
          1657.0,
          1658.0,
          1656.0,
          1659.0,
          1667.0,
          1662.0,
          1662.0,
          1651.0,
          1656.0,
          1659.0,
          1657.0,
          1665.0,
          1665.0,
          1682.0,
          1666.0,
          1664.0,
          1661.0,
          1668.0,
          1664.0,
          1666.0,
          1668.0,
          1669.0,
          1669.0,
          1666.0,
          1665.0,
          1666.0,
          1665.0,
          1668.0,
          1674.0,
          1670.0,
          1661.0,
          1666.0,
          1665.0,
          1661.0,
          1662.0,
          1667.0,
          1670.0,
          1671.0,
          1675.0,
          1671.0,
          1669.0,
          1666.0,
          1669.0,
          1673.0,
          1669.0,
          1668.0,
          1670.0,
          1677.0,
          1678.0,
          1672.0,
          1679.0,
          1673.0,
          1671.0,
          1673.0,
          1671.0,
          1672.0,
          1673.0,
          1671.0,
          1671.0,
          1678.0,
          1672.0,
          1671.0,
          1673.0,
          1677.0,
          1674.0,
          1680.0,
          1673.0,
          1680.0,
          1681.0,
          1679.0,
          1677.0,
          1675.0,
          1676.0
        ]
      },
      "slices": {}
    }
  },
  "dummy_trs": 0,
  "dvars_nstd": 36.65047644015625,
  "dvars_std": 1.2499590992187497,
  "dvars_vstd": 1.0240205574999999,
  "efc": 0.5532291860713774,
  "fber": 1737.8663330078125,
  "fd_mean": 0.5813009254109633,
  "fd_num": 117,
  "fd_perc": 90.69767441860465,
  "fwhm_avg": 1.619772192965294,
  "fwhm_x": 1.5093966666666667,
  "fwhm_y": 1.8313533333333334,
  "fwhm_z": 1.518566578895882,
  "gcor": 0.0933595,
  "gsr_x": -0.011894213035702705,
  "gsr_y": 0.04837004095315933,
  "provenance": {
    "md5sum": "0b23b15a9982b2a0089acc8fab2e6871",
    "settings": {
      "fd_thres": 0.2,
      "testing": false
    },
    "software": "mriqc",
    "version": "22.0.1",
    "webapi_port": null,
    "webapi_url": "https://mriqc.nimh.nih.gov/api/v1"
  },
  "size_t": 129,
  "size_x": 64,
  "size_y": 64,
  "size_z": 34,
  "snr": 7.00061371972794,
  "spacing_tr": 2.3399999141693115,
  "spacing_x": 3.0,
  "spacing_y": 3.0,
  "spacing_z": 3.3000001907348633,
  "summary_bg_k": 59.42162024405531,
  "summary_bg_mad": 8.355439445183277,
  "summary_bg_mean": 35.31509017944336,
  "summary_bg_median": 21.581396102905273,
  "summary_bg_n": 75778.0,
  "summary_bg_p05": 12.945735931396484,
  "summary_bg_p95": 92.71666870117174,
  "summary_bg_stdv": 54.53423309326172,
  "summary_fg_k": 1.98503176022467,
  "summary_fg_mad": 136.4166426109764,
  "summary_fg_mean": 915.1412353515625,
  "summary_fg_median": 915.1124267578125,
  "summary_fg_n": 31516.0,
  "summary_fg_p05": 723.5057830810547,
  "summary_fg_p95": 1111.2015991210938,
  "summary_fg_stdv": 130.71681213378906,
  "tsnr": 49.33026725391392
}