{
  "aor": 0.009348682170542634,
  "aqi": 0.02732411868217054,
  "bids_meta": {
    "AcquisitionMatrixPE": 64,
    "AcquisitionNumber": 1,
    "AcquisitionTime": "14:51:36.235000",
    "BandwidthPerPixelPhaseEncode": 24.038,
    "BaseResolution": 64,
    "BodyPartExamined": "HEAD",
    "ConsistencyInfo": "N4_VD13A_LATEST_20120616",
    "ConversionSoftware": "dcm2niix",
    "ConversionSoftwareVersion": "v1.0.20181125  GCC6.3.0",
    "DerivedVendorReportedEchoSpacing": 0.000650012,
    "DeviceSerialNumber": "45250",
    "DwellTime": 4.6e-06,
    "EchoTime": 0.033,
    "EchoTrainLength": 64,
    "EffectiveEchoSpacing": 0.000650012,
    "FlipAngle": 90,
    "ImageOrientationPatientDICOM": [
      0.999919,
      -0.00734981,
      -0.0103621,
      0.00349035,
      0.943202,
      -0.332201
    ],
    "ImageType": [
      "ORIGINAL",
      "PRIMARY",
      "M",
      "ND",
      "NORM",
      "MOSAIC"
    ],
    "ImagingFrequency": 123.22,
    "InPlanePhaseEncodingDirectionDICOM": "COL",
    "InstitutionAddress": "Kopernikusstr._26_Graz_Graz_AT_8010",
    "InstitutionName": "KFU",
    "InstitutionalDepartmentName": "Department",
    "MRAcquisitionType": "2D",
    "MagneticFieldStrength": 3,
    "Manufacturer": "Siemens",
    "ManufacturersModelName": "Skyra",
    "Modality": "MR",
    "PartialFourier": 1,
    "PatientPosition": "HFS",
    "PercentPhaseFOV": 100,
    "PhaseEncodingDirection": "j-",
    "PhaseEncodingSteps": 64,
    "PhaseResolution": 1,
    "PixelBandwidth": 1700,
    "ProcedureStepDescription": "KFU_Entw-Psy",
    "ProtocolName": "fMRI_2",
    "PulseSequenceDetails": "%SiemensSeq%_ep2d_pace",
    "ReceiveCoilActiveElements": "HE1-4",
    "ReceiveCoilName": "HeadNeck_20",
    "ReconMatrixPE": 64,
    "RepetitionTime": 2.34,
    "SAR": 0.147039,
    "ScanOptions": "FS",
    "ScanningSequence": "EP",
    "SequenceName": "_epfid2d1_64",
    "SequenceVariant": "SK",
    "SeriesDescription": "fMRI_2",
    "SeriesNumber": 5,
    "ShimSetting": [
      -1669,
      -3641,
      -4350,
      306,
      443,
      92,
      31,
      -324
    ],
    "SliceThickness": 3,
    "SliceTiming": [
      2.25,
      2.1825,
      2.115,
      2.045,
      1.9775,
      1.91,
      1.8425,
      1.7725,
      1.705,
      1.6375,
      1.5675,
      1.5,
      1.4325,
      1.3625,
      1.295,
      1.2275,
      1.16,
      1.09,
      1.0225,
      0.955,
      0.885,
      0.8175,
      0.75,
      0.6825,
      0.6125,
      0.545,
      0.4775,
      0.4075,
      0.34,
      0.2725,
      0.205,
      0.135,
      0.0675,
      0
    ],
    "SoftwareVersions": "syngo_MR_D13",
    "SpacingBetweenSlices": 3.3,
    "StationName": "FBMTMR1",
    "TaskName": "read",
    "TotalReadoutTime": 0.0409508,
    "TxRefAmp": 334.234,
    "dataset": "ds003126",
    "dcmmeta_affine": [
      [
        -2.999758005142212,
        0.010471060872077942,
        -0.04030995070934296,
        96.52511596679688
      ],
      [
        0.022049425169825554,
        2.8296070098876953,
        -1.096053957939148,
        -97.50274658203125
      ],
      [
        -0.031086202710866928,
        0.9966016411781311,
        3.112401008605957,
        -46.8107795715332
      ],
      [
        0.0,
        0.0,
        0.0,
        1.0
      ]
    ],
    "dcmmeta_reorient_transform": [
      [
        0.0,
        -1.0,
        0.0,
        63.0
      ],
      [
        1.0,
        0.0,
        0.0,
        0.0
      ],
      [
        0.0,
        0.0,
        1.0,
        0.0
      ],
      [
        0.0,
        0.0,
        0.0,
        1.0
      ]
    ],
    "dcmmeta_shape": [
      64,
      64,
      34,
      129
    ],
    "dcmmeta_slice_dim": 2,
    "dcmmeta_version": 0.6,
    "global": {
      "const": {
        "AcquisitionMatrix": [
          64,
          0,
          0,
          64
        ],
        "AngioFlag": "N",
        "BitsAllocated": 16,
        "BitsStored": 12,
        "BodyPartExamined": "HEAD",
        "Columns": 384,
        "EchoNumbers": 1,
        "EchoTime": 33.0,
        "EchoTrainLength": 64,
        "FlipAngle": 90.0,
        "HighBit": 11,
        "ImageOrientationPatient": [
          0.99991930067551,
          -0.0073498086627,
          -0.0103620678058,
          0.00349035368318,
          0.94320231963892,
          -0.3322005443387
        ],
        "ImagePositionPatient": [
          -578.82142939644,
          -529.97169489713,
          180.40517592337
        ],
        "ImageType": [
          "ORIGINAL",
          "PRIMARY",
          "M",
          "ND",
          "NORM",
          "MOSAIC"
        ],
        "ImagedNucleus": "1H",
        "ImagingFrequency": 123.220132,
        "InPlanePhaseEncodingDirection": "COL",
        "MRAcquisitionType": "2D",
        "MagneticFieldStrength": 3.0,
        "Manufacturer": "SIEMENS",
        "ManufacturerModelName": "Skyra",
        "Modality": "MR",
        "NumberOfAverages": 1.0,
        "NumberOfPhaseEncodingSteps": 64,
        "PercentPhaseFieldOfView": 100.0,
        "PercentSampling": 100.0,
        "PerformedProcedureStepStartTime": "144324.671000",
        "PhotometricInterpretation": "MONOCHROME2",
        "PixelBandwidth": 1700.0,
        "PixelRepresentation": 0,
        "PixelSpacing": [
          3.0,
          3.0
        ],
        "ProtocolName": "fMRI_2",
        "RepetitionTime": 2340.0,
        "Rows": 384,
        "SAR": 0.14703916749241,
        "SamplesPerPixel": 1,
        "ScanOptions": "FS",
        "ScanningSequence": "EP",
        "SequenceName": "*epfid2d1_64",
        "SequenceVariant": "SK",
        "SeriesDescription": "fMRI_2",
        "SeriesNumber": 5,
        "SeriesTime": "145239.672000",
        "SliceLocation": -12.944416446318,
        "SliceThickness": 3.0,
        "SmallestImagePixelValue": 0,
        "SoftwareVersions": "syngo MR D13",
        "SpacingBetweenSlices": 3.2999999824984,
        "SpecificCharacterSet": "ISO_IR 100",
        "StudyID": "1",
        "StudyTime": "144324.631000",
        "TransmitCoilName": "Body",
        "VariableFlipAngleFlag": "N",
        "WindowCenterWidthExplanation": "Algo1",
        "dBdt": 0.0
      },
      "slices": {}
    },
    "modality": "bold",
    "run_id": 2,
    "session_id": "2",
    "subject_id": "047EPKL013065",
    "task_id": "read",
    "time": {
      "samples": {
        "AcquisitionNumber": [
          1,
          2,
          3,
          4,
          5,
          6,
          7,
          8,
          9,
          10,
          11,
          12,
          13,
          14,
          15,
          16,
          17,
          18,
          19,
          20,
          21,
          22,
          23,
          24,
          25,
          26,
          27,
          28,
          29,
          30,
          31,
          32,
          33,
          34,
          35,
          36,
          37,
          38,
          39,
          40,
          41,
          42,
          43,
          44,
          45,
          46,
          47,
          48,
          49,
          50,
          51,
          52,
          53,
          54,
          55,
          56,
          57,
          58,
          59,
          60,
          61,
          62,
          63,
          64,
          65,
          66,
          67,
          68,
          69,
          70,
          71,
          72,
          73,
          74,
          75,
          76,
          77,
          78,
          79,
          80,
          81,
          82,
          83,
          84,
          85,
          86,
          87,
          88,
          89,
          90,
          91,
          92,
          93,
          94,
          95,
          96,
          97,
          98,
          99,
          100,
          101,
          102,
          103,
          104,
          105,
          106,
          107,
          108,
          109,
          110,
          111,
          112,
          113,
          114,
          115,
          116,
          117,
          118,
          119,
          120,
          121,
          122,
          123,
          124,
          125,
          126,
          127,
          128,
          129
        ],
        "AcquisitionTime": [
          "145136.235000",
          "145138.575000",
          "145140.915000",
          "145143.255000",
          "145145.595000",
          "145147.935000",
          "145150.275000",
          "145152.615000",
          "145154.955000",
          "145157.295000",
          "145159.635000",
          "145201.975000",
          "145204.315000",
          "145206.655000",
          "145208.995000",
          "145211.335000",
          "145213.675000",
          "145216.015000",
          "145218.355000",
          "145220.695000",
          "145223.035000",
          "145225.375000",
          "145227.715000",
          "145230.055000",
          "145232.395000",
          "145234.735000",
          "145237.075000",
          "145239.415000",
          "145241.755000",
          "145244.095000",
          "145246.435000",
          "145248.775000",
          "145251.115000",
          "145253.455000",
          "145255.795000",
          "145258.135000",
          "145300.475000",
          "145302.815000",
          "145305.155000",
          "145307.495000",
          "145309.835000",
          "145312.175000",
          "145314.515000",
          "145316.855000",
          "145319.195000",
          "145321.535000",
          "145323.875000",
          "145326.215000",
          "145328.555000",
          "145330.895000",
          "145333.235000",
          "145335.575000",
          "145337.915000",
          "145340.255000",
          "145342.595000",
          "145344.935000",
          "145347.275000",
          "145349.615000",
          "145351.955000",
          "145354.295000",
          "145356.635000",
          "145358.975000",
          "145401.315000",
          "145403.655000",
          "145405.995000",
          "145408.335000",
          "145410.675000",
          "145413.015000",
          "145415.355000",
          "145417.695000",
          "145420.035000",
          "145422.375000",
          "145424.715000",
          "145427.055000",
          "145429.395000",
          "145431.735000",
          "145434.075000",
          "145436.415000",
          "145438.755000",
          "145441.095000",
          "145443.435000",
          "145445.775000",
          "145448.115000",
          "145450.455000",
          "145452.795000",
          "145455.135000",
          "145457.475000",
          "145459.815000",
          "145502.155000",
          "145504.495000",
          "145506.835000",
          "145509.175000",
          "145511.515000",
          "145513.855000",
          "145516.195000",
          "145518.535000",
          "145520.875000",
          "145523.215000",
          "145525.555000",
          "145527.895000",
          "145530.235000",
          "145532.575000",
          "145534.915000",
          "145537.255000",
          "145539.595000",
          "145541.935000",
          "145544.275000",
          "145546.615000",
          "145548.955000",
          "145551.295000",
          "145553.635000",
          "145555.975000",
          "145558.315000",
          "145600.655000",
          "145602.995000",
          "145605.335000",
          "145607.675000",
          "145610.015000",
          "145612.355000",
          "145614.695000",
          "145617.035000",
          "145619.375000",
          "145621.715000",
          "145624.055000",
          "145626.395000",
          "145628.735000",
          "145631.075000",
          "145633.415000",
          "145635.755000"
        ],
        "ContentTime": [
          "145239.676000",
          "145239.680000",
          "145239.683000",
          "145239.686000",
          "145239.689000",
          "145239.691000",
          "145239.694000",
          "145239.697000",
          "145239.700000",
          "145239.703000",
          "145239.705000",
          "145239.708000",
          "145239.711000",
          "145239.713000",
          "145239.716000",
          "145239.719000",
          "145239.721000",
          "145239.724000",
          "145239.727000",
          "145239.730000",
          "145239.732000",
          "145239.735000",
          "145239.738000",
          "145239.741000",
          "145239.744000",
          "145239.747000",
          "145239.749000",
          "145339.670000",
          "145339.674000",
          "145339.676000",
          "145339.679000",
          "145339.682000",
          "145339.685000",
          "145339.688000",
          "145339.691000",
          "145339.693000",
          "145339.696000",
          "145339.699000",
          "145339.702000",
          "145339.705000",
          "145339.707000",
          "145339.711000",
          "145339.714000",
          "145339.716000",
          "145339.719000",
          "145339.722000",
          "145339.725000",
          "145339.728000",
          "145339.730000",
          "145339.733000",
          "145339.736000",
          "145339.739000",
          "145339.742000",
          "145439.670000",
          "145439.673000",
          "145439.676000",
          "145439.679000",
          "145439.681000",
          "145439.684000",
          "145439.687000",
          "145439.690000",
          "145439.693000",
          "145439.696000",
          "145439.698000",
          "145439.713000",
          "145439.716000",
          "145439.719000",
          "145439.722000",
          "145439.724000",
          "145439.727000",
          "145439.730000",
          "145439.733000",
          "145439.736000",
          "145439.738000",
          "145439.741000",
          "145439.744000",
          "145439.747000",
          "145439.750000",
          "145439.753000",
          "145539.671000",
          "145539.674000",
          "145539.677000",
          "145539.680000",
          "145539.683000",
          "145539.686000",
          "145539.689000",
          "145539.692000",
          "145539.694000",
          "145539.697000",
          "145539.700000",
          "145539.703000",
          "145539.706000",
          "145539.709000",
          "145539.712000",
          "145539.715000",
          "145539.718000",
          "145539.720000",
          "145539.723000",
          "145539.726000",
          "145539.729000",
          "145539.732000",
          "145539.735000",
          "145539.738000",
          "145539.740000",
          "145637.993000",
          "145637.996000",
          "145638.000000",
          "145638.003000",
          "145638.006000",
          "145638.012000",
          "145638.017000",
          "145638.021000",
          "145638.026000",
          "145638.029000",
          "145638.032000",
          "145638.037000",
          "145638.041000",
          "145638.046000",
          "145638.049000",
          "145638.053000",
          "145638.057000",
          "145638.062000",
          "145638.066000",
          "145638.069000",
          "145638.072000",
          "145638.075000",
          "145638.078000",
          "145638.081000",
          "145638.086000"
        ],
        "InstanceCreationTime": [
          "145239.676000",
          "145239.680000",
          "145239.683000",
          "145239.686000",
          "145239.689000",
          "145239.691000",
          "145239.694000",
          "145239.697000",
          "145239.700000",
          "145239.703000",
          "145239.705000",
          "145239.708000",
          "145239.711000",
          "145239.713000",
          "145239.716000",
          "145239.719000",
          "145239.721000",
          "145239.724000",
          "145239.727000",
          "145239.730000",
          "145239.732000",
          "145239.735000",
          "145239.738000",
          "145239.741000",
          "145239.744000",
          "145239.747000",
          "145239.749000",
          "145339.670000",
          "145339.674000",
          "145339.676000",
          "145339.679000",
          "145339.682000",
          "145339.685000",
          "145339.688000",
          "145339.691000",
          "145339.693000",
          "145339.696000",
          "145339.699000",
          "145339.702000",
          "145339.705000",
          "145339.707000",
          "145339.711000",
          "145339.714000",
          "145339.716000",
          "145339.719000",
          "145339.722000",
          "145339.725000",
          "145339.728000",
          "145339.730000",
          "145339.733000",
          "145339.736000",
          "145339.739000",
          "145339.742000",
          "145439.670000",
          "145439.673000",
          "145439.676000",
          "145439.679000",
          "145439.681000",
          "145439.684000",
          "145439.687000",
          "145439.690000",
          "145439.693000",
          "145439.696000",
          "145439.698000",
          "145439.713000",
          "145439.716000",
          "145439.719000",
          "145439.722000",
          "145439.724000",
          "145439.727000",
          "145439.730000",
          "145439.733000",
          "145439.736000",
          "145439.738000",
          "145439.741000",
          "145439.744000",
          "145439.747000",
          "145439.750000",
          "145439.753000",
          "145539.671000",
          "145539.674000",
          "145539.677000",
          "145539.680000",
          "145539.683000",
          "145539.686000",
          "145539.689000",
          "145539.692000",
          "145539.694000",
          "145539.697000",
          "145539.700000",
          "145539.703000",
          "145539.706000",
          "145539.709000",
          "145539.712000",
          "145539.715000",
          "145539.718000",
          "145539.720000",
          "145539.723000",
          "145539.726000",
          "145539.729000",
          "145539.732000",
          "145539.735000",
          "145539.738000",
          "145539.740000",
          "145637.993000",
          "145637.996000",
          "145638.000000",
          "145638.003000",
          "145638.006000",
          "145638.012000",
          "145638.017000",
          "145638.021000",
          "145638.026000",
          "145638.029000",
          "145638.032000",
          "145638.037000",
          "145638.041000",
          "145638.046000",
          "145638.049000",
          "145638.053000",
          "145638.057000",
          "145638.062000",
          "145638.066000",
          "145638.069000",
          "145638.072000",
          "145638.075000",
          "145638.078000",
          "145638.081000",
          "145638.086000"
        ],
        "InstanceNumber": [
          1,
          2,
          3,
          4,
          5,
          6,
          7,
          8,
          9,
          10,
          11,
          12,
          13,
          14,
          15,
          16,
          17,
          18,
          19,
          20,
          21,
          22,
          23,
          24,
          25,
          26,
          27,
          28,
          29,
          30,
          31,
          32,
          33,
          34,
          35,
          36,
          37,
          38,
          39,
          40,
          41,
          42,
          43,
          44,
          45,
          46,
          47,
          48,
          49,
          50,
          51,
          52,
          53,
          54,
          55,
          56,
          57,
          58,
          59,
          60,
          61,
          62,
          63,
          64,
          65,
          66,
          67,
          68,
          69,
          70,
          71,
          72,
          73,
          74,
          75,
          76,
          77,
          78,
          79,
          80,
          81,
          82,
          83,
          84,
          85,
          86,
          87,
          88,
          89,
          90,
          91,
          92,
          93,
          94,
          95,
          96,
          97,
          98,
          99,
          100,
          101,
          102,
          103,
          104,
          105,
          106,
          107,
          108,
          109,
          110,
          111,
          112,
          113,
          114,
          115,
          116,
          117,
          118,
          119,
          120,
          121,
          122,
          123,
          124,
          125,
          126,
          127,
          128,
          129
        ],
        "LargestImagePixelValue": [
          2289,
          2205,
          2494,
          3178,
          2449,
          2362,
          2553,
          2199,
          2191,
          2328,
          2172,
          2392,
          2226,
          2277,
          2277,
          2349,
          2424,
          2240,
          2332,
          2091,
          2468,
          2670,
          2231,
          2511,
          2712,
          2126,
          2877,
          2616,
          2044,
          2261,
          2150,
          2753,
          2497,
          2321,
          2665,
          2553,
          2312,
          2177,
          2075,
          2643,
          2656,
          2284,
          2042,
          2371,
          2916,
          2390,
          2305,
          2065,
          2320,
          2152,
          2386,
          2117,
          2409,
          2789,
          2524,
          2853,
          2211,
          2017,
          2442,
          2458,
          2255,
          2368,
          2356,
          2592,
          2008,
          2299,
          2349,
          2948,
          3006,
          2320,
          2462,
          2120,
          2181,
          2347,
          2492,
          2252,
          2431,
          1977,
          2698,
          2654,
          2111,
          2179,
          2023,
          2369,
          2270,
          1944,
          2757,
          2464,
          2716,
          2297,
          2039,
          2248,
          2374,
          2084,
          2745,
          2282,
          2270,
          2115,
          2264,
          2325,
          2186,
          2417,
          2509,
          2527,
          2233,
          2343,
          2430,
          2151,
          2219,
          2224,
          2333,
          2248,
          2339,
          2654,
          2381,
          2218,
          2488,
          2351,
          2148,
          2390,
          2335,
          2220,
          2312,
          2516,
          2804,
          2355,
          2349,
          2324,
          2480
        ],
        "WindowCenter": [
          816.0,
          814.0,
          816.0,
          815.0,
          807.0,
          816.0,
          808.0,
          809.0,
          812.0,
          812.0,
          814.0,
          814.0,
          811.0,
          816.0,
          817.0,
          814.0,
          814.0,
          816.0,
          813.0,
          815.0,
          815.0,
          816.0,
          812.0,
          815.0,
          813.0,
          815.0,
          815.0,
          813.0,
          811.0,
          818.0,
          816.0,
          816.0,
          815.0,
          815.0,
          816.0,
          816.0,
          814.0,
          817.0,
          815.0,
          815.0,
          815.0,
          813.0,
          815.0,
          816.0,
          815.0,
          817.0,
          809.0,
          816.0,
          817.0,
          815.0,
          816.0,
          818.0,
          814.0,
          815.0,
          811.0,
          811.0,
          810.0,
          811.0,
          812.0,
          810.0,
          815.0,
          813.0,
          812.0,
          820.0,
          816.0,
          818.0,
          818.0,
          818.0,
          817.0,
          815.0,
          814.0,
          817.0,
          819.0,
          817.0,
          817.0,
          817.0,
          818.0,
          817.0,
          817.0,
          816.0,
          814.0,
          817.0,
          815.0,
          815.0,
          813.0,
          814.0,
          818.0,
          818.0,
          818.0,
          816.0,
          811.0,
          815.0,
          817.0,
          820.0,
          818.0,
          813.0,
          813.0,
          816.0,
          817.0,
          817.0,
          814.0,
          817.0,
          815.0,
          818.0,
          816.0,
          816.0,
          813.0,
          816.0,
          817.0,
          815.0,
          815.0,
          816.0,
          818.0,
          816.0,
          816.0,
          813.0,
          814.0,
          818.0,
          818.0,
          817.0,
          816.0,
          815.0,
          812.0,
          819.0,
          816.0,
          817.0,
          815.0,
          817.0,
          817.0
        ],
        "WindowWidth": [
          1729.0,
          1732.0,
          1735.0,
          1729.0,
          1707.0,
          1732.0,
          1715.0,
          1720.0,
          1725.0,
          1725.0,
          1732.0,
          1730.0,
          1721.0,
          1737.0,
          1737.0,
          1729.0,
          1729.0,
          1737.0,
          1727.0,
          1732.0,
          1728.0,
          1738.0,
          1724.0,
          1730.0,
          1725.0,
          1731.0,
          1731.0,
          1727.0,
          1720.0,
          1742.0,
          1735.0,
          1735.0,
          1733.0,
          1732.0,
          1733.0,
          1735.0,
          1729.0,
          1739.0,
          1733.0,
          1733.0,
          1732.0,
          1726.0,
          1730.0,
          1738.0,
          1734.0,
          1736.0,
          1717.0,
          1734.0,
          1737.0,
          1730.0,
          1735.0,
          1739.0,
          1732.0,
          1731.0,
          1720.0,
          1723.0,
          1716.0,
          1721.0,
          1724.0,
          1720.0,
          1731.0,
          1726.0,
          1723.0,
          1745.0,
          1734.0,
          1740.0,
          1739.0,
          1741.0,
          1738.0,
          1732.0,
          1730.0,
          1737.0,
          1742.0,
          1736.0,
          1738.0,
          1738.0,
          1739.0,
          1737.0,
          1739.0,
          1736.0,
          1730.0,
          1737.0,
          1732.0,
          1733.0,
          1728.0,
          1730.0,
          1740.0,
          1739.0,
          1736.0,
          1736.0,
          1723.0,
          1732.0,
          1734.0,
          1744.0,
          1741.0,
          1727.0,
          1728.0,
          1735.0,
          1737.0,
          1736.0,
          1727.0,
          1737.0,
          1733.0,
          1742.0,
          1734.0,
          1734.0,
          1727.0,
          1736.0,
          1736.0,
          1731.0,
          1733.0,
          1733.0,
          1739.0,
          1734.0,
          1736.0,
          1728.0,
          1730.0,
          1738.0,
          1739.0,
          1738.0,
          1734.0,
          1730.0,
          1726.0,
          1742.0,
          1736.0,
          1738.0,
          1732.0,
          1738.0,
          1738.0
        ]
      },
      "slices": {}
    }
  },
  "dummy_trs": 0,
  "dvars_nstd": 49.67850461562501,
  "dvars_std": 1.338963454375,
  "dvars_vstd": 1.0637611908593751,
  "efc": 0.5747977848126997,
  "fber": 1661.8245849609375,
  "fd_mean": 0.9268057976003137,
  "fd_num": 120,
  "fd_perc": 93.02325581395348,
  "fwhm_avg": 1.6146184922059639,
  "fwhm_x": 1.5367566666666665,
  "fwhm_y": 1.7795533333333333,
  "fwhm_z": 1.5275454766178922,
  "gcor": 0.0387275,
  "gsr_x": -0.004660634323954582,
  "gsr_y": 0.041825614869594574,
  "provenance": {
    "md5sum": "826c9bfbe07d5fe43c4aed1113bb9f78",
    "settings": {
      "fd_thres": 0.2,
      "testing": false
    },
    "software": "mriqc",
    "version": "22.0.1",
    "webapi_port": null,
    "webapi_url": "https://mriqc.nimh.nih.gov/api/v1"
  },
  "size_t": 129,
  "size_x": 64,
  "size_y": 64,
  "size_z": 34,
  "snr": 7.13974641431651,
  "spacing_tr": 2.3399999141693115,
  "spacing_x": 3.0,
  "spacing_y": 3.0,
  "spacing_z": 3.299999952316284,
  "summary_bg_k": 53.106110469448744,
  "summary_bg_mad": 8.378424123131301,
  "summary_bg_mean": 33.99545669555664,
  "summary_bg_median": 22.705427169799805,
  "summary_bg_n": 72000.0,
  "summary_bg_p05": 13.43410873413086,
  "summary_bg_p95": 89.20930480957031,
  "summary_bg_stdv": 40.31778335571289,
  "summary_fg_k": 3.2470280146129333,
  "summary_fg_mad": 127.42334441866369,
  "summary_fg_mean": 945.6751708984375,
  "summary_fg_median": 945.279052734375,
  "summary_fg_n": 35311.0,
  "summary_fg_p05": 753.6821899414062,
  "summary_fg_p95": 1143.31396484375,
  "summary_fg_stdv": 132.3948516845703,
  "tsnr": 41.3553684130311
}