{
  "aor": 0.00909425196850394,
  "aqi": 0.025130792047244093,
  "bids_meta": {
    "AcquisitionMatrixPE": 64,
    "AcquisitionNumber": 1,
    "AcquisitionTime": "13:10:25.795000",
    "BandwidthPerPixelPhaseEncode": 24.038,
    "BaseResolution": 64,
    "BodyPartExamined": "HEAD",
    "ConsistencyInfo": "N4_VD13A_LATEST_20120616",
    "ConversionSoftware": "dcm2niix",
    "ConversionSoftwareVersion": "v1.0.20181125  GCC6.3.0",
    "DerivedVendorReportedEchoSpacing": 0.000650012,
    "DeviceSerialNumber": "45250",
    "DwellTime": 4.6e-06,
    "EchoTime": 0.033,
    "EchoTrainLength": 64,
    "EffectiveEchoSpacing": 0.000650012,
    "FlipAngle": 90,
    "ImageOrientationPatientDICOM": [
      0.999912,
      -0.00814594,
      -0.0105007,
      0.00523559,
      0.967679,
      -0.252129
    ],
    "ImageType": [
      "ORIGINAL",
      "PRIMARY",
      "M",
      "ND",
      "NORM",
      "MOSAIC"
    ],
    "ImagingFrequency": 123.215,
    "InPlanePhaseEncodingDirectionDICOM": "COL",
    "InstitutionAddress": "Kopernikusstr._26_Graz_Graz_AT_8010",
    "InstitutionName": "KFU",
    "InstitutionalDepartmentName": "Department",
    "MRAcquisitionType": "2D",
    "MagneticFieldStrength": 3,
    "Manufacturer": "Siemens",
    "ManufacturersModelName": "Skyra",
    "Modality": "MR",
    "PartialFourier": 1,
    "PatientPosition": "HFS",
    "PercentPhaseFOV": 100,
    "PhaseEncodingDirection": "j-",
    "PhaseEncodingSteps": 64,
    "PhaseResolution": 1,
    "PixelBandwidth": 1700,
    "ProcedureStepDescription": "KFU_Entw-Psy",
    "ProtocolName": "fMRI_2",
    "PulseSequenceDetails": "%SiemensSeq%_ep2d_pace",
    "ReceiveCoilActiveElements": "HE1-4",
    "ReceiveCoilName": "HeadNeck_20",
    "ReconMatrixPE": 64,
    "RepetitionTime": 2.34,
    "SAR": 0.151089,
    "ScanOptions": "FS",
    "ScanningSequence": "EP",
    "SequenceName": "_epfid2d1_64",
    "SequenceVariant": "SK",
    "SeriesDescription": "fMRI_2",
    "SeriesNumber": 5,
    "ShimSetting": [
      -1605,
      -3678,
      -4395,
      319,
      417,
      -184,
      142,
      -315
    ],
    "SliceThickness": 3,
    "SliceTiming": [
      2.2525,
      2.185,
      2.115,
      2.0475,
      1.98,
      1.91,
      1.8425,
      1.775,
      1.7075,
      1.6375,
      1.57,
      1.5025,
      1.4325,
      1.365,
      1.2975,
      1.2275,
      1.16,
      1.0925,
      1.025,
      0.955,
      0.8875,
      0.82,
      0.75,
      0.6825,
      0.615,
      0.5475,
      0.4775,
      0.41,
      0.3425,
      0.2725,
      0.205,
      0.1375,
      0.07,
      0
    ],
    "SoftwareVersions": "syngo_MR_D13",
    "SpacingBetweenSlices": 3.3,
    "StationName": "FBMTMR1",
    "TaskName": "read",
    "TotalReadoutTime": 0.0409508,
    "TxRefAmp": 329.427,
    "dataset": "ds003126",
    "dcmmeta_affine": [
      [
        -2.999735116958618,
        0.01570676639676094,
        -0.04030997306108475,
        96.3620834350586
      ],
      [
        0.02443782053887844,
        2.903038263320923,
        -0.8317710161209106,
        -105.42086791992188
      ],
      [
        -0.03150210902094841,
        0.7563871741294861,
        3.1932010650634766,
        -38.27427291870117
      ],
      [
        0.0,
        0.0,
        0.0,
        1.0
      ]
    ],
    "dcmmeta_reorient_transform": [
      [
        0.0,
        -1.0,
        0.0,
        63.0
      ],
      [
        1.0,
        0.0,
        0.0,
        0.0
      ],
      [
        0.0,
        0.0,
        1.0,
        0.0
      ],
      [
        0.0,
        0.0,
        0.0,
        1.0
      ]
    ],
    "dcmmeta_shape": [
      64,
      64,
      34,
      127
    ],
    "dcmmeta_slice_dim": 2,
    "dcmmeta_version": 0.6,
    "global": {
      "const": {
        "AcquisitionMatrix": [
          64,
          0,
          0,
          64
        ],
        "AngioFlag": "N",
        "BitsAllocated": 16,
        "BitsStored": 12,
        "BodyPartExamined": "HEAD",
        "Columns": 384,
        "EchoNumbers": 1,
        "EchoTime": 33.0,
        "EchoTrainLength": 64,
        "FlipAngle": 90.0,
        "HighBit": 11,
        "ImageOrientationPatient": [
          0.99991168555138,
          -0.0081459399709,
          -0.0105007028235,
          0.00523558883401,
          0.96767945493106,
          -0.2521290564649
        ],
        "ImagePositionPatient": [
          -579.82229853182,
          -538.04663508426,
          135.44040506929
        ],
        "ImageType": [
          "ORIGINAL",
          "PRIMARY",
          "M",
          "ND",
          "NORM",
          "MOSAIC"
        ],
        "ImagedNucleus": "1H",
        "ImagingFrequency": 123.214534,
        "InPlanePhaseEncodingDirection": "COL",
        "MRAcquisitionType": "2D",
        "MagneticFieldStrength": 3.0,
        "Manufacturer": "SIEMENS",
        "ManufacturerModelName": "Skyra",
        "Modality": "MR",
        "NumberOfAverages": 1.0,
        "NumberOfPhaseEncodingSteps": 64,
        "PercentPhaseFieldOfView": 100.0,
        "PercentSampling": 100.0,
        "PerformedProcedureStepStartTime": "130232.483000",
        "PhotometricInterpretation": "MONOCHROME2",
        "PixelBandwidth": 1700.0,
        "PixelRepresentation": 0,
        "PixelSpacing": [
          3.0,
          3.0
        ],
        "ProtocolName": "fMRI_2",
        "RepetitionTime": 2340.0,
        "Rows": 384,
        "SAR": 0.15108854738672,
        "SamplesPerPixel": 1,
        "ScanOptions": "FS",
        "ScanningSequence": "EP",
        "SequenceName": "*epfid2d1_64",
        "SequenceVariant": "SK",
        "SeriesDescription": "fMRI_2",
        "SeriesNumber": 5,
        "SeriesTime": "131123.659000",
        "SliceLocation": -11.641142614247,
        "SliceThickness": 3.0,
        "SmallestImagePixelValue": 0,
        "SoftwareVersions": "syngo MR D13",
        "SpacingBetweenSlices": 3.3000001163211,
        "SpecificCharacterSet": "ISO_IR 100",
        "StudyID": "1",
        "StudyTime": "130232.429000",
        "TransmitCoilName": "Body",
        "VariableFlipAngleFlag": "N",
        "WindowCenterWidthExplanation": "Algo1",
        "dBdt": 0.0
      },
      "slices": {}
    },
    "modality": "bold",
    "run_id": 2,
    "session_id": "2",
    "subject_id": "047EPKL013013",
    "task_id": "read",
    "time": {
      "samples": {
        "AcquisitionNumber": [
          1,
          2,
          3,
          4,
          5,
          6,
          7,
          8,
          9,
          10,
          11,
          12,
          13,
          14,
          15,
          16,
          17,
          18,
          19,
          20,
          21,
          22,
          23,
          24,
          25,
          26,
          27,
          28,
          29,
          30,
          31,
          32,
          33,
          34,
          35,
          36,
          37,
          38,
          39,
          40,
          41,
          42,
          43,
          44,
          45,
          46,
          47,
          48,
          49,
          50,
          51,
          52,
          53,
          54,
          55,
          56,
          57,
          58,
          59,
          60,
          61,
          62,
          63,
          64,
          65,
          66,
          67,
          68,
          69,
          70,
          71,
          72,
          73,
          74,
          75,
          76,
          77,
          78,
          79,
          80,
          81,
          82,
          83,
          84,
          85,
          86,
          87,
          88,
          89,
          90,
          91,
          92,
          93,
          94,
          95,
          96,
          97,
          98,
          99,
          100,
          101,
          102,
          103,
          104,
          105,
          106,
          107,
          108,
          109,
          110,
          111,
          112,
          113,
          114,
          115,
          116,
          117,
          118,
          119,
          120,
          121,
          122,
          123,
          124,
          125,
          126,
          127
        ],
        "AcquisitionTime": [
          "131025.795000",
          "131028.135000",
          "131030.475000",
          "131032.815000",
          "131035.155000",
          "131037.495000",
          "131039.835000",
          "131042.175000",
          "131044.515000",
          "131046.855000",
          "131049.195000",
          "131051.535000",
          "131053.875000",
          "131056.215000",
          "131058.555000",
          "131100.895000",
          "131103.235000",
          "131105.575000",
          "131107.915000",
          "131110.255000",
          "131112.595000",
          "131114.935000",
          "131117.275000",
          "131119.615000",
          "131121.955000",
          "131124.295000",
          "131126.635000",
          "131128.975000",
          "131131.315000",
          "131133.655000",
          "131135.995000",
          "131138.335000",
          "131140.675000",
          "131143.015000",
          "131145.355000",
          "131147.695000",
          "131150.035000",
          "131152.375000",
          "131154.715000",
          "131157.055000",
          "131159.395000",
          "131201.735000",
          "131204.075000",
          "131206.415000",
          "131208.755000",
          "131211.095000",
          "131213.435000",
          "131215.775000",
          "131218.115000",
          "131220.455000",
          "131222.795000",
          "131225.135000",
          "131227.475000",
          "131229.815000",
          "131232.155000",
          "131234.495000",
          "131236.835000",
          "131239.175000",
          "131241.515000",
          "131243.855000",
          "131246.195000",
          "131248.535000",
          "131250.875000",
          "131253.215000",
          "131255.555000",
          "131257.895000",
          "131300.235000",
          "131302.575000",
          "131304.915000",
          "131307.255000",
          "131309.595000",
          "131311.935000",
          "131314.275000",
          "131316.615000",
          "131318.955000",
          "131321.295000",
          "131323.635000",
          "131325.975000",
          "131328.315000",
          "131330.655000",
          "131332.995000",
          "131335.335000",
          "131337.675000",
          "131340.015000",
          "131342.355000",
          "131344.695000",
          "131347.035000",
          "131349.375000",
          "131351.715000",
          "131354.055000",
          "131356.395000",
          "131358.735000",
          "131401.075000",
          "131403.415000",
          "131405.755000",
          "131408.095000",
          "131410.435000",
          "131412.775000",
          "131415.115000",
          "131417.455000",
          "131419.795000",
          "131422.135000",
          "131424.475000",
          "131426.815000",
          "131429.155000",
          "131431.495000",
          "131433.835000",
          "131436.175000",
          "131438.515000",
          "131440.855000",
          "131443.195000",
          "131445.535000",
          "131447.875000",
          "131450.215000",
          "131452.555000",
          "131454.895000",
          "131457.235000",
          "131459.575000",
          "131501.915000",
          "131504.255000",
          "131506.595000",
          "131508.935000",
          "131511.275000",
          "131513.615000",
          "131515.955000",
          "131518.295000",
          "131520.635000"
        ],
        "ContentTime": [
          "131123.664000",
          "131123.673000",
          "131123.675000",
          "131123.678000",
          "131123.681000",
          "131123.684000",
          "131123.687000",
          "131123.689000",
          "131123.692000",
          "131123.694000",
          "131123.697000",
          "131123.700000",
          "131123.703000",
          "131123.705000",
          "131123.708000",
          "131123.711000",
          "131123.713000",
          "131123.716000",
          "131123.718000",
          "131123.721000",
          "131123.724000",
          "131123.727000",
          "131123.729000",
          "131123.732000",
          "131123.735000",
          "131223.648000",
          "131223.651000",
          "131223.654000",
          "131223.657000",
          "131223.659000",
          "131223.662000",
          "131223.665000",
          "131223.667000",
          "131223.670000",
          "131223.673000",
          "131223.676000",
          "131223.679000",
          "131223.681000",
          "131223.684000",
          "131223.687000",
          "131223.690000",
          "131223.693000",
          "131223.700000",
          "131223.703000",
          "131223.706000",
          "131223.708000",
          "131223.711000",
          "131223.714000",
          "131223.716000",
          "131223.719000",
          "131323.648000",
          "131323.652000",
          "131323.655000",
          "131323.657000",
          "131323.660000",
          "131323.663000",
          "131323.665000",
          "131323.668000",
          "131323.671000",
          "131323.673000",
          "131323.676000",
          "131323.683000",
          "131323.685000",
          "131323.688000",
          "131323.691000",
          "131323.693000",
          "131323.696000",
          "131323.699000",
          "131323.701000",
          "131323.704000",
          "131323.706000",
          "131323.709000",
          "131323.712000",
          "131323.714000",
          "131323.717000",
          "131323.719000",
          "131423.649000",
          "131423.653000",
          "131423.656000",
          "131423.658000",
          "131423.661000",
          "131423.664000",
          "131423.667000",
          "131423.669000",
          "131423.672000",
          "131423.675000",
          "131423.677000",
          "131423.680000",
          "131423.683000",
          "131423.686000",
          "131423.688000",
          "131423.696000",
          "131423.699000",
          "131423.701000",
          "131423.704000",
          "131423.707000",
          "131423.709000",
          "131423.712000",
          "131423.715000",
          "131423.717000",
          "131423.720000",
          "131423.723000",
          "131521.873000",
          "131521.876000",
          "131521.879000",
          "131521.882000",
          "131521.884000",
          "131521.888000",
          "131521.891000",
          "131521.894000",
          "131521.897000",
          "131521.900000",
          "131521.903000",
          "131521.906000",
          "131521.909000",
          "131521.912000",
          "131521.915000",
          "131521.918000",
          "131521.921000",
          "131521.924000",
          "131521.927000",
          "131521.930000",
          "131521.933000",
          "131521.936000",
          "131521.939000",
          "131521.942000",
          "131521.945000"
        ],
        "InstanceCreationTime": [
          "131123.664000",
          "131123.673000",
          "131123.675000",
          "131123.678000",
          "131123.681000",
          "131123.684000",
          "131123.687000",
          "131123.689000",
          "131123.692000",
          "131123.694000",
          "131123.697000",
          "131123.700000",
          "131123.703000",
          "131123.705000",
          "131123.708000",
          "131123.711000",
          "131123.713000",
          "131123.716000",
          "131123.718000",
          "131123.721000",
          "131123.724000",
          "131123.727000",
          "131123.729000",
          "131123.732000",
          "131123.735000",
          "131223.648000",
          "131223.651000",
          "131223.654000",
          "131223.657000",
          "131223.659000",
          "131223.662000",
          "131223.665000",
          "131223.667000",
          "131223.670000",
          "131223.673000",
          "131223.676000",
          "131223.679000",
          "131223.681000",
          "131223.684000",
          "131223.687000",
          "131223.690000",
          "131223.693000",
          "131223.700000",
          "131223.703000",
          "131223.706000",
          "131223.708000",
          "131223.711000",
          "131223.714000",
          "131223.716000",
          "131223.719000",
          "131323.648000",
          "131323.652000",
          "131323.655000",
          "131323.657000",
          "131323.660000",
          "131323.663000",
          "131323.665000",
          "131323.668000",
          "131323.671000",
          "131323.673000",
          "131323.676000",
          "131323.683000",
          "131323.685000",
          "131323.688000",
          "131323.691000",
          "131323.693000",
          "131323.696000",
          "131323.699000",
          "131323.701000",
          "131323.704000",
          "131323.706000",
          "131323.709000",
          "131323.712000",
          "131323.714000",
          "131323.717000",
          "131323.719000",
          "131423.649000",
          "131423.653000",
          "131423.656000",
          "131423.658000",
          "131423.661000",
          "131423.664000",
          "131423.667000",
          "131423.669000",
          "131423.672000",
          "131423.675000",
          "131423.677000",
          "131423.680000",
          "131423.683000",
          "131423.686000",
          "131423.688000",
          "131423.696000",
          "131423.699000",
          "131423.701000",
          "131423.704000",
          "131423.707000",
          "131423.709000",
          "131423.712000",
          "131423.715000",
          "131423.717000",
          "131423.720000",
          "131423.723000",
          "131521.873000",
          "131521.876000",
          "131521.879000",
          "131521.882000",
          "131521.884000",
          "131521.888000",
          "131521.891000",
          "131521.894000",
          "131521.897000",
          "131521.900000",
          "131521.903000",
          "131521.906000",
          "131521.909000",
          "131521.912000",
          "131521.915000",
          "131521.918000",
          "131521.921000",
          "131521.924000",
          "131521.927000",
          "131521.930000",
          "131521.933000",
          "131521.936000",
          "131521.939000",
          "131521.942000",
          "131521.945000"
        ],
        "InstanceNumber": [
          1,
          2,
          3,
          4,
          5,
          6,
          7,
          8,
          9,
          10,
          11,
          12,
          13,
          14,
          15,
          16,
          17,
          18,
          19,
          20,
          21,
          22,
          23,
          24,
          25,
          26,
          27,
          28,
          29,
          30,
          31,
          32,
          33,
          34,
          35,
          36,
          37,
          38,
          39,
          40,
          41,
          42,
          43,
          44,
          45,
          46,
          47,
          48,
          49,
          50,
          51,
          52,
          53,
          54,
          55,
          56,
          57,
          58,
          59,
          60,
          61,
          62,
          63,
          64,
          65,
          66,
          67,
          68,
          69,
          70,
          71,
          72,
          73,
          74,
          75,
          76,
          77,
          78,
          79,
          80,
          81,
          82,
          83,
          84,
          85,
          86,
          87,
          88,
          89,
          90,
          91,
          92,
          93,
          94,
          95,
          96,
          97,
          98,
          99,
          100,
          101,
          102,
          103,
          104,
          105,
          106,
          107,
          108,
          109,
          110,
          111,
          112,
          113,
          114,
          115,
          116,
          117,
          118,
          119,
          120,
          121,
          122,
          123,
          124,
          125,
          126,
          127
        ],
        "LargestImagePixelValue": [
          1806,
          1692,
          1810,
          2212,
          1790,
          1691,
          1615,
          1787,
          1950,
          1690,
          1964,
          1648,
          1662,
          1875,
          1682,
          1729,
          1737,
          1756,
          1712,
          1818,
          1622,
          1717,
          1692,
          1695,
          1681,
          1631,
          1749,
          2057,
          1679,
          2233,
          1768,
          1677,
          1739,
          1756,
          1741,
          1665,
          1649,
          1801,
          2311,
          1720,
          1649,
          1696,
          1720,
          2082,
          2287,
          1681,
          1820,
          1984,
          1733,
          1757,
          1732,
          1692,
          1731,
          1725,
          1911,
          1667,
          2177,
          2076,
          1653,
          1682,
          2016,
          1622,
          1702,
          1844,
          1647,
          2187,
          1759,
          1846,
          1726,
          1745,
          1674,
          1725,
          1759,
          1838,
          2041,
          1689,
          1900,
          1737,
          1680,
          1598,
          1950,
          1672,
          1694,
          2053,
          1641,
          2058,
          1697,
          1687,
          1730,
          1676,
          1705,
          1675,
          1764,
          1645,
          1699,
          2004,
          2353,
          1757,
          1719,
          1692,
          1771,
          1741,
          2356,
          2388,
          1649,
          1627,
          1749,
          1762,
          2177,
          1886,
          1657,
          1770,
          2013,
          1674,
          1793,
          1703,
          1719,
          2270,
          1935,
          1738,
          1696,
          1662,
          1743,
          2128,
          1702,
          1678,
          1631
        ],
        "WindowCenter": [
          777.0,
          776.0,
          777.0,
          776.0,
          774.0,
          775.0,
          775.0,
          778.0,
          777.0,
          775.0,
          776.0,
          776.0,
          776.0,
          775.0,
          775.0,
          775.0,
          775.0,
          781.0,
          774.0,
          770.0,
          773.0,
          775.0,
          771.0,
          778.0,
          777.0,
          777.0,
          778.0,
          778.0,
          778.0,
          777.0,
          776.0,
          776.0,
          776.0,
          781.0,
          780.0,
          778.0,
          776.0,
          777.0,
          777.0,
          778.0,
          778.0,
          780.0,
          779.0,
          781.0,
          778.0,
          776.0,
          776.0,
          778.0,
          775.0,
          776.0,
          778.0,
          779.0,
          782.0,
          783.0,
          781.0,
          783.0,
          783.0,
          780.0,
          780.0,
          782.0,
          782.0,
          780.0,
          782.0,
          782.0,
          781.0,
          783.0,
          779.0,
          781.0,
          779.0,
          779.0,
          778.0,
          782.0,
          780.0,
          782.0,
          782.0,
          782.0,
          783.0,
          782.0,
          783.0,
          782.0,
          783.0,
          782.0,
          783.0,
          779.0,
          778.0,
          782.0,
          779.0,
          782.0,
          779.0,
          781.0,
          780.0,
          778.0,
          781.0,
          782.0,
          784.0,
          784.0,
          782.0,
          782.0,
          780.0,
          785.0,
          782.0,
          784.0,
          783.0,
          780.0,
          779.0,
          784.0,
          786.0,
          785.0,
          782.0,
          781.0,
          782.0,
          783.0,
          783.0,
          783.0,
          783.0,
          784.0,
          785.0,
          787.0,
          782.0,
          782.0,
          780.0,
          783.0,
          783.0,
          780.0,
          780.0,
          783.0,
          787.0
        ],
        "WindowWidth": [
          1642.0,
          1640.0,
          1643.0,
          1639.0,
          1636.0,
          1638.0,
          1636.0,
          1648.0,
          1642.0,
          1639.0,
          1641.0,
          1642.0,
          1641.0,
          1639.0,
          1638.0,
          1638.0,
          1640.0,
          1654.0,
          1641.0,
          1626.0,
          1633.0,
          1640.0,
          1630.0,
          1647.0,
          1643.0,
          1642.0,
          1647.0,
          1646.0,
          1645.0,
          1643.0,
          1641.0,
          1639.0,
          1641.0,
          1656.0,
          1648.0,
          1647.0,
          1641.0,
          1646.0,
          1644.0,
          1646.0,
          1645.0,
          1650.0,
          1647.0,
          1653.0,
          1648.0,
          1641.0,
          1642.0,
          1648.0,
          1640.0,
          1642.0,
          1646.0,
          1649.0,
          1655.0,
          1659.0,
          1652.0,
          1660.0,
          1660.0,
          1652.0,
          1653.0,
          1658.0,
          1655.0,
          1652.0,
          1656.0,
          1655.0,
          1656.0,
          1659.0,
          1651.0,
          1655.0,
          1651.0,
          1649.0,
          1648.0,
          1659.0,
          1652.0,
          1658.0,
          1656.0,
          1659.0,
          1659.0,
          1657.0,
          1657.0,
          1660.0,
          1660.0,
          1655.0,
          1656.0,
          1648.0,
          1647.0,
          1657.0,
          1649.0,
          1655.0,
          1652.0,
          1654.0,
          1652.0,
          1648.0,
          1654.0,
          1657.0,
          1663.0,
          1664.0,
          1657.0,
          1657.0,
          1653.0,
          1667.0,
          1659.0,
          1660.0,
          1659.0,
          1653.0,
          1649.0,
          1662.0,
          1667.0,
          1665.0,
          1659.0,
          1654.0,
          1657.0,
          1660.0,
          1660.0,
          1658.0,
          1661.0,
          1664.0,
          1664.0,
          1669.0,
          1657.0,
          1658.0,
          1655.0,
          1659.0,
          1660.0,
          1653.0,
          1650.0,
          1661.0,
          1669.0
        ]
      },
      "slices": {}
    }
  },
  "dummy_trs": 0,
  "dvars_nstd": 52.430661595158746,
  "dvars_std": 1.3182368850793658,
  "dvars_vstd": 1.0839016299206345,
  "efc": 0.5685234289813028,
  "fber": 1470.3157958984375,
  "fd_mean": 0.8942922462534606,
  "fd_num": 119,
  "fd_perc": 93.7007874015748,
  "fwhm_avg": 1.7323939083404722,
  "fwhm_x": 1.6513533333333335,
  "fwhm_y": 1.9340133333333334,
  "fwhm_z": 1.6118150583547501,
  "gcor": 0.0627911,
  "gsr_x": -0.004302173387259245,
  "gsr_y": 0.03094472736120224,
  "provenance": {
    "md5sum": "a1271d2e8a59819238a97c82a0ec3206",
    "settings": {
      "fd_thres": 0.2,
      "testing": false
    },
    "software": "mriqc",
    "version": "22.0.1",
    "webapi_port": null,
    "webapi_url": "https://mriqc.nimh.nih.gov/api/v1"
  },
  "size_t": 127,
  "size_x": 64,
  "size_y": 64,
  "size_z": 34,
  "snr": 6.840049521736453,
  "spacing_tr": 2.3399999141693115,
  "spacing_x": 3.0,
  "spacing_y": 3.0,
  "spacing_z": 3.3000001907348633,
  "summary_bg_k": 54.02397387794146,
  "summary_bg_mad": 9.82953552303095,
  "summary_bg_mean": 34.9344596862793,
  "summary_bg_median": 22.65354347229004,
  "summary_bg_n": 72948.0,
  "summary_bg_p05": 12.21259880065918,
  "summary_bg_p95": 86.8082641601562,
  "summary_bg_stdv": 48.16468811035156,
  "summary_fg_k": 2.117198442951417,
  "summary_fg_mad": 128.16333341047456,
  "summary_fg_mean": 889.6617431640625,
  "summary_fg_median": 887.2637939453125,
  "summary_fg_n": 33706.0,
  "summary_fg_p05": 696.3759613037109,
  "summary_fg_p95": 1086.4567260742188,
  "summary_fg_stdv": 129.7140655517578,
  "tsnr": 37.62124349549413
}