{
  "aor": 0.00895590551181102,
  "aqi": 0.017854525433070874,
  "bids_meta": {
    "AcquisitionMatrixPE": 64,
    "AcquisitionNumber": 1,
    "AcquisitionTime": "16:05:9.330000",
    "BandwidthPerPixelPhaseEncode": 24.038,
    "BaseResolution": 64,
    "BodyPartExamined": "HEAD",
    "ConsistencyInfo": "N4_VD13A_LATEST_20120616",
    "ConversionSoftware": "dcm2niix",
    "ConversionSoftwareVersion": "v1.0.20181125  GCC6.3.0",
    "DerivedVendorReportedEchoSpacing": 0.000650012,
    "DeviceSerialNumber": "45250",
    "DwellTime": 4.6e-06,
    "EchoTime": 0.033,
    "EchoTrainLength": 64,
    "EffectiveEchoSpacing": 0.000650012,
    "FlipAngle": 90,
    "ImageOrientationPatientDICOM": [
      0.999919,
      0.000476144,
      -0.0126951,
      -0.00349036,
      0.971138,
      -0.238492
    ],
    "ImageType": [
      "ORIGINAL",
      "PRIMARY",
      "M",
      "ND",
      "NORM",
      "MOSAIC"
    ],
    "ImagingFrequency": 123.213,
    "InPlanePhaseEncodingDirectionDICOM": "COL",
    "InstitutionAddress": "Kopernikusstr._26_Graz_Graz_AT_8010",
    "InstitutionName": "KFU",
    "InstitutionalDepartmentName": "Department",
    "MRAcquisitionType": "2D",
    "MagneticFieldStrength": 3,
    "Manufacturer": "Siemens",
    "ManufacturersModelName": "Skyra",
    "Modality": "MR",
    "PartialFourier": 1,
    "PatientPosition": "HFS",
    "PercentPhaseFOV": 100,
    "PhaseEncodingDirection": "j-",
    "PhaseEncodingSteps": 64,
    "PhaseResolution": 1,
    "PixelBandwidth": 1700,
    "ProcedureStepDescription": "KFU_Entw-Psy",
    "ProtocolName": "fMRI_3",
    "PulseSequenceDetails": "%SiemensSeq%_ep2d_pace",
    "ReceiveCoilActiveElements": "HE1-4",
    "ReceiveCoilName": "HeadNeck_20",
    "ReconMatrixPE": 64,
    "RepetitionTime": 2.34,
    "SAR": 0.19438,
    "ScanOptions": "FS",
    "ScanningSequence": "EP",
    "SequenceName": "_epfid2d1_64",
    "SequenceVariant": "SK",
    "SeriesDescription": "fMRI_3",
    "SeriesNumber": 11,
    "ShimSetting": [
      -1555,
      -3639,
      -4390,
      401,
      482,
      198,
      244,
      -276
    ],
    "SliceThickness": 3,
    "SliceTiming": [
      2.2525,
      2.185,
      2.115,
      2.0475,
      1.98,
      1.91,
      1.8425,
      1.775,
      1.7075,
      1.6375,
      1.57,
      1.5025,
      1.4325,
      1.365,
      1.2975,
      1.23,
      1.16,
      1.0925,
      1.025,
      0.955,
      0.8875,
      0.82,
      0.7525,
      0.6825,
      0.615,
      0.5475,
      0.4775,
      0.41,
      0.3425,
      0.2725,
      0.205,
      0.1375,
      0.07,
      0
    ],
    "SoftwareVersions": "syngo_MR_D13",
    "SpacingBetweenSlices": 3.3,
    "StationName": "FBMTMR1",
    "TaskName": "read",
    "TotalReadoutTime": 0.0409508,
    "TxRefAmp": 368.46,
    "dataset": "ds003126",
    "dcmmeta_affine": [
      [
        -2.999758005142212,
        -0.01047109067440033,
        -0.04030998796224594,
        97.17432403564453
      ],
      [
        -0.001428432879038155,
        2.913414716720581,
        -0.787105917930603,
        -101.7462158203125
      ],
      [
        -0.038085322827100754,
        0.7154756188392639,
        3.204503059387207,
        -31.374759674072266
      ],
      [
        0.0,
        0.0,
        0.0,
        1.0
      ]
    ],
    "dcmmeta_reorient_transform": [
      [
        0.0,
        -1.0,
        0.0,
        63.0
      ],
      [
        1.0,
        0.0,
        0.0,
        0.0
      ],
      [
        0.0,
        0.0,
        1.0,
        0.0
      ],
      [
        0.0,
        0.0,
        0.0,
        1.0
      ]
    ],
    "dcmmeta_shape": [
      64,
      64,
      34,
      127
    ],
    "dcmmeta_slice_dim": 2,
    "dcmmeta_version": 0.6,
    "global": {
      "const": {
        "AcquisitionMatrix": [
          64,
          0,
          0,
          64
        ],
        "AngioFlag": "N",
        "BitsAllocated": 16,
        "BitsStored": 12,
        "BodyPartExamined": "HEAD",
        "Columns": 384,
        "EchoNumbers": 1,
        "EchoTime": 33.0,
        "EchoTrainLength": 64,
        "FlipAngle": 90.0,
        "HighBit": 11,
        "ImageOrientationPatient": [
          0.99991930050908,
          0.00047614431069,
          -0.012695107563,
          -0.0034903635593,
          0.97113822138596,
          -0.2384918705649
        ],
        "ImagePositionPatient": [
          -574.80053616891,
          -548.17380042252,
          134.26995352152
        ],
        "ImageType": [
          "ORIGINAL",
          "PRIMARY",
          "M",
          "ND",
          "NORM",
          "MOSAIC"
        ],
        "ImagedNucleus": "1H",
        "ImagingFrequency": 123.212723,
        "InPlanePhaseEncodingDirection": "COL",
        "MRAcquisitionType": "2D",
        "MagneticFieldStrength": 3.0,
        "Manufacturer": "SIEMENS",
        "ManufacturerModelName": "Skyra",
        "Modality": "MR",
        "NumberOfAverages": 1.0,
        "NumberOfPhaseEncodingSteps": 64,
        "PercentPhaseFieldOfView": 100.0,
        "PercentSampling": 100.0,
        "PerformedProcedureStepStartTime": "153446.772000",
        "PhotometricInterpretation": "MONOCHROME2",
        "PixelBandwidth": 1700.0,
        "PixelRepresentation": 0,
        "PixelSpacing": [
          3.0,
          3.0
        ],
        "ProtocolName": "fMRI_3",
        "RepetitionTime": 2340.0,
        "Rows": 384,
        "SAR": 0.19437972722724,
        "SamplesPerPixel": 1,
        "ScanOptions": "FS",
        "ScanningSequence": "EP",
        "SequenceName": "*epfid2d1_64",
        "SequenceVariant": "SK",
        "SeriesDescription": "fMRI_3",
        "SeriesNumber": 11,
        "SeriesTime": "160606.378000",
        "SliceLocation": -7.3856238861785,
        "SliceThickness": 3.0,
        "SmallestImagePixelValue": 0,
        "SoftwareVersions": "syngo MR D13",
        "SpacingBetweenSlices": 3.3000000140187,
        "SpecificCharacterSet": "ISO_IR 100",
        "StudyID": "1",
        "StudyTime": "153446.674000",
        "TransmitCoilName": "Body",
        "VariableFlipAngleFlag": "N",
        "WindowCenterWidthExplanation": "Algo1",
        "dBdt": 0.0
      },
      "slices": {}
    },
    "modality": "bold",
    "run_id": 3,
    "session_id": "2",
    "subject_id": "047EPKL011049",
    "task_id": "read",
    "time": {
      "samples": {
        "AcquisitionNumber": [
          1,
          2,
          3,
          4,
          5,
          6,
          7,
          8,
          9,
          10,
          11,
          12,
          13,
          14,
          15,
          16,
          17,
          18,
          19,
          20,
          21,
          22,
          23,
          24,
          25,
          26,
          27,
          28,
          29,
          30,
          31,
          32,
          33,
          34,
          35,
          36,
          37,
          38,
          39,
          40,
          41,
          42,
          43,
          44,
          45,
          46,
          47,
          48,
          49,
          50,
          51,
          52,
          53,
          54,
          55,
          56,
          57,
          58,
          59,
          60,
          61,
          62,
          63,
          64,
          65,
          66,
          67,
          68,
          69,
          70,
          71,
          72,
          73,
          74,
          75,
          76,
          77,
          78,
          79,
          80,
          81,
          82,
          83,
          84,
          85,
          86,
          87,
          88,
          89,
          90,
          91,
          92,
          93,
          94,
          95,
          96,
          97,
          98,
          99,
          100,
          101,
          102,
          103,
          104,
          105,
          106,
          107,
          108,
          109,
          110,
          111,
          112,
          113,
          114,
          115,
          116,
          117,
          118,
          119,
          120,
          121,
          122,
          123,
          124,
          125,
          126,
          127
        ],
        "AcquisitionTime": [
          "160509.330000",
          "160511.670000",
          "160514.010000",
          "160516.350000",
          "160518.690000",
          "160521.030000",
          "160523.370000",
          "160525.710000",
          "160528.050000",
          "160530.390000",
          "160532.730000",
          "160535.070000",
          "160537.410000",
          "160539.750000",
          "160542.090000",
          "160544.430000",
          "160546.770000",
          "160549.110000",
          "160551.450000",
          "160553.790000",
          "160556.130000",
          "160558.470000",
          "160600.810000",
          "160603.150000",
          "160605.490000",
          "160607.830000",
          "160610.170000",
          "160612.510000",
          "160614.850000",
          "160617.190000",
          "160619.530000",
          "160621.870000",
          "160624.210000",
          "160626.550000",
          "160628.890000",
          "160631.230000",
          "160633.570000",
          "160635.910000",
          "160638.250000",
          "160640.590000",
          "160642.930000",
          "160645.270000",
          "160647.610000",
          "160649.950000",
          "160652.290000",
          "160654.630000",
          "160656.970000",
          "160659.310000",
          "160701.650000",
          "160703.990000",
          "160706.330000",
          "160708.670000",
          "160711.010000",
          "160713.350000",
          "160715.690000",
          "160718.030000",
          "160720.370000",
          "160722.710000",
          "160725.050000",
          "160727.390000",
          "160729.730000",
          "160732.070000",
          "160734.410000",
          "160736.750000",
          "160739.090000",
          "160741.430000",
          "160743.770000",
          "160746.110000",
          "160748.450000",
          "160750.790000",
          "160753.130000",
          "160755.470000",
          "160757.810000",
          "160800.150000",
          "160802.490000",
          "160804.830000",
          "160807.170000",
          "160809.510000",
          "160811.850000",
          "160814.190000",
          "160816.530000",
          "160818.870000",
          "160821.210000",
          "160823.550000",
          "160825.890000",
          "160828.230000",
          "160830.570000",
          "160832.910000",
          "160835.250000",
          "160837.590000",
          "160839.930000",
          "160842.270000",
          "160844.610000",
          "160846.950000",
          "160849.290000",
          "160851.630000",
          "160853.970000",
          "160856.310000",
          "160858.650000",
          "160900.990000",
          "160903.330000",
          "160905.670000",
          "160908.010000",
          "160910.350000",
          "160912.690000",
          "160915.030000",
          "160917.370000",
          "160919.710000",
          "160922.050000",
          "160924.390000",
          "160926.730000",
          "160929.070000",
          "160931.410000",
          "160933.750000",
          "160936.090000",
          "160938.430000",
          "160940.770000",
          "160943.110000",
          "160945.450000",
          "160947.790000",
          "160950.130000",
          "160952.470000",
          "160954.810000",
          "160957.150000",
          "160959.490000",
          "161001.830000",
          "161004.170000"
        ],
        "ContentTime": [
          "160606.383000",
          "160606.387000",
          "160606.389000",
          "160606.392000",
          "160606.400000",
          "160606.403000",
          "160606.406000",
          "160606.409000",
          "160606.411000",
          "160606.414000",
          "160606.417000",
          "160606.420000",
          "160606.422000",
          "160606.425000",
          "160606.428000",
          "160606.430000",
          "160606.433000",
          "160606.436000",
          "160606.438000",
          "160606.449000",
          "160606.452000",
          "160606.455000",
          "160606.457000",
          "160606.460000",
          "160606.462000",
          "160706.375000",
          "160706.378000",
          "160706.381000",
          "160706.383000",
          "160706.386000",
          "160706.389000",
          "160706.392000",
          "160706.394000",
          "160706.397000",
          "160706.400000",
          "160706.403000",
          "160706.411000",
          "160706.414000",
          "160706.417000",
          "160706.419000",
          "160706.422000",
          "160706.425000",
          "160706.427000",
          "160706.430000",
          "160706.432000",
          "160706.435000",
          "160706.438000",
          "160706.440000",
          "160706.443000",
          "160706.446000",
          "160806.375000",
          "160806.378000",
          "160806.381000",
          "160806.384000",
          "160806.387000",
          "160806.390000",
          "160806.392000",
          "160806.395000",
          "160806.398000",
          "160806.401000",
          "160806.404000",
          "160806.407000",
          "160806.410000",
          "160806.412000",
          "160806.415000",
          "160806.418000",
          "160806.421000",
          "160806.424000",
          "160806.427000",
          "160806.430000",
          "160806.432000",
          "160806.435000",
          "160806.438000",
          "160806.440000",
          "160806.443000",
          "160806.446000",
          "160906.374000",
          "160906.377000",
          "160906.380000",
          "160906.382000",
          "160906.385000",
          "160906.388000",
          "160906.390000",
          "160906.393000",
          "160906.396000",
          "160906.399000",
          "160906.401000",
          "160906.404000",
          "160906.407000",
          "160906.409000",
          "160906.412000",
          "160906.415000",
          "160906.418000",
          "160906.421000",
          "160906.424000",
          "160906.427000",
          "160906.429000",
          "160906.432000",
          "160906.435000",
          "160906.438000",
          "160906.441000",
          "160906.443000",
          "161005.805000",
          "161005.808000",
          "161005.811000",
          "161005.822000",
          "161005.826000",
          "161005.831000",
          "161005.834000",
          "161005.837000",
          "161005.840000",
          "161005.843000",
          "161005.845000",
          "161005.849000",
          "161005.852000",
          "161005.854000",
          "161005.857000",
          "161005.860000",
          "161005.863000",
          "161005.866000",
          "161005.869000",
          "161005.872000",
          "161005.875000",
          "161005.878000",
          "161005.881000",
          "161005.884000",
          "161005.887000"
        ],
        "InstanceCreationTime": [
          "160606.383000",
          "160606.387000",
          "160606.389000",
          "160606.392000",
          "160606.400000",
          "160606.403000",
          "160606.406000",
          "160606.409000",
          "160606.411000",
          "160606.414000",
          "160606.417000",
          "160606.420000",
          "160606.422000",
          "160606.425000",
          "160606.428000",
          "160606.430000",
          "160606.433000",
          "160606.436000",
          "160606.438000",
          "160606.449000",
          "160606.452000",
          "160606.455000",
          "160606.457000",
          "160606.460000",
          "160606.462000",
          "160706.375000",
          "160706.378000",
          "160706.381000",
          "160706.383000",
          "160706.386000",
          "160706.389000",
          "160706.392000",
          "160706.394000",
          "160706.397000",
          "160706.400000",
          "160706.403000",
          "160706.411000",
          "160706.414000",
          "160706.417000",
          "160706.419000",
          "160706.422000",
          "160706.425000",
          "160706.427000",
          "160706.430000",
          "160706.432000",
          "160706.435000",
          "160706.438000",
          "160706.440000",
          "160706.443000",
          "160706.446000",
          "160806.375000",
          "160806.378000",
          "160806.381000",
          "160806.384000",
          "160806.387000",
          "160806.390000",
          "160806.392000",
          "160806.395000",
          "160806.398000",
          "160806.401000",
          "160806.404000",
          "160806.407000",
          "160806.410000",
          "160806.412000",
          "160806.415000",
          "160806.418000",
          "160806.421000",
          "160806.424000",
          "160806.427000",
          "160806.430000",
          "160806.432000",
          "160806.435000",
          "160806.438000",
          "160806.440000",
          "160806.443000",
          "160806.446000",
          "160906.374000",
          "160906.377000",
          "160906.380000",
          "160906.382000",
          "160906.385000",
          "160906.388000",
          "160906.390000",
          "160906.393000",
          "160906.396000",
          "160906.399000",
          "160906.401000",
          "160906.404000",
          "160906.407000",
          "160906.409000",
          "160906.412000",
          "160906.415000",
          "160906.418000",
          "160906.421000",
          "160906.424000",
          "160906.427000",
          "160906.429000",
          "160906.432000",
          "160906.435000",
          "160906.438000",
          "160906.441000",
          "160906.443000",
          "161005.805000",
          "161005.808000",
          "161005.811000",
          "161005.822000",
          "161005.826000",
          "161005.831000",
          "161005.834000",
          "161005.837000",
          "161005.840000",
          "161005.843000",
          "161005.845000",
          "161005.849000",
          "161005.852000",
          "161005.854000",
          "161005.857000",
          "161005.860000",
          "161005.863000",
          "161005.866000",
          "161005.869000",
          "161005.872000",
          "161005.875000",
          "161005.878000",
          "161005.881000",
          "161005.884000",
          "161005.887000"
        ],
        "InstanceNumber": [
          1,
          2,
          3,
          4,
          5,
          6,
          7,
          8,
          9,
          10,
          11,
          12,
          13,
          14,
          15,
          16,
          17,
          18,
          19,
          20,
          21,
          22,
          23,
          24,
          25,
          26,
          27,
          28,
          29,
          30,
          31,
          32,
          33,
          34,
          35,
          36,
          37,
          38,
          39,
          40,
          41,
          42,
          43,
          44,
          45,
          46,
          47,
          48,
          49,
          50,
          51,
          52,
          53,
          54,
          55,
          56,
          57,
          58,
          59,
          60,
          61,
          62,
          63,
          64,
          65,
          66,
          67,
          68,
          69,
          70,
          71,
          72,
          73,
          74,
          75,
          76,
          77,
          78,
          79,
          80,
          81,
          82,
          83,
          84,
          85,
          86,
          87,
          88,
          89,
          90,
          91,
          92,
          93,
          94,
          95,
          96,
          97,
          98,
          99,
          100,
          101,
          102,
          103,
          104,
          105,
          106,
          107,
          108,
          109,
          110,
          111,
          112,
          113,
          114,
          115,
          116,
          117,
          118,
          119,
          120,
          121,
          122,
          123,
          124,
          125,
          126,
          127
        ],
        "LargestImagePixelValue": [
          2825,
          2210,
          2434,
          2007,
          2108,
          2512,
          2232,
          2181,
          2303,
          2201,
          2640,
          2226,
          2151,
          1992,
          2087,
          2134,
          2103,
          2648,
          2004,
          2007,
          2172,
          2224,
          2278,
          2641,
          2370,
          2296,
          2127,
          2259,
          2218,
          2187,
          1946,
          2052,
          2239,
          2110,
          2101,
          2154,
          2285,
          2216,
          2113,
          2172,
          2199,
          2184,
          2036,
          2160,
          1956,
          1985,
          2016,
          1949,
          2148,
          2086,
          2112,
          2054,
          2127,
          1927,
          2732,
          2271,
          2194,
          2138,
          2141,
          2173,
          2258,
          2081,
          2010,
          2032,
          2028,
          2306,
          2347,
          2412,
          2256,
          2257,
          2192,
          1980,
          2427,
          2770,
          2348,
          2446,
          2419,
          2172,
          2518,
          2093,
          1901,
          2017,
          2063,
          1968,
          2377,
          2165,
          1969,
          2062,
          2229,
          2249,
          2260,
          2151,
          2022,
          2249,
          3036,
          2368,
          2122,
          2169,
          2241,
          2064,
          2212,
          2783,
          2199,
          2047,
          2637,
          2202,
          2046,
          2122,
          2449,
          2829,
          2258,
          2380,
          2198,
          2045,
          2070,
          2144,
          2083,
          2264,
          2028,
          2053,
          2283,
          2820,
          2408,
          2044,
          2128,
          2075,
          2177
        ],
        "WindowCenter": [
          824.0,
          818.0,
          815.0,
          816.0,
          820.0,
          821.0,
          818.0,
          815.0,
          815.0,
          819.0,
          818.0,
          813.0,
          814.0,
          815.0,
          819.0,
          821.0,
          822.0,
          822.0,
          820.0,
          821.0,
          822.0,
          823.0,
          823.0,
          823.0,
          821.0,
          819.0,
          820.0,
          823.0,
          818.0,
          818.0,
          820.0,
          822.0,
          821.0,
          821.0,
          817.0,
          817.0,
          818.0,
          819.0,
          818.0,
          818.0,
          818.0,
          820.0,
          820.0,
          821.0,
          819.0,
          821.0,
          822.0,
          822.0,
          823.0,
          822.0,
          822.0,
          821.0,
          823.0,
          823.0,
          824.0,
          820.0,
          821.0,
          823.0,
          823.0,
          822.0,
          818.0,
          821.0,
          820.0,
          820.0,
          823.0,
          824.0,
          826.0,
          822.0,
          820.0,
          821.0,
          822.0,
          826.0,
          824.0,
          825.0,
          818.0,
          818.0,
          812.0,
          818.0,
          819.0,
          825.0,
          820.0,
          824.0,
          823.0,
          825.0,
          825.0,
          824.0,
          821.0,
          825.0,
          826.0,
          825.0,
          824.0,
          825.0,
          825.0,
          824.0,
          824.0,
          824.0,
          820.0,
          824.0,
          824.0,
          824.0,
          824.0,
          825.0,
          821.0,
          822.0,
          824.0,
          822.0,
          824.0,
          821.0,
          822.0,
          821.0,
          814.0,
          816.0,
          814.0,
          819.0,
          822.0,
          822.0,
          822.0,
          827.0,
          824.0,
          825.0,
          826.0,
          824.0,
          823.0,
          823.0,
          824.0,
          824.0,
          826.0
        ],
        "WindowWidth": [
          1732.0,
          1716.0,
          1712.0,
          1712.0,
          1721.0,
          1725.0,
          1717.0,
          1710.0,
          1711.0,
          1719.0,
          1717.0,
          1706.0,
          1708.0,
          1712.0,
          1722.0,
          1726.0,
          1728.0,
          1730.0,
          1724.0,
          1725.0,
          1728.0,
          1730.0,
          1729.0,
          1730.0,
          1726.0,
          1721.0,
          1723.0,
          1731.0,
          1719.0,
          1719.0,
          1721.0,
          1727.0,
          1725.0,
          1726.0,
          1715.0,
          1716.0,
          1719.0,
          1721.0,
          1718.0,
          1718.0,
          1718.0,
          1724.0,
          1723.0,
          1724.0,
          1720.0,
          1724.0,
          1728.0,
          1727.0,
          1730.0,
          1729.0,
          1728.0,
          1726.0,
          1731.0,
          1730.0,
          1733.0,
          1724.0,
          1723.0,
          1730.0,
          1731.0,
          1727.0,
          1719.0,
          1725.0,
          1723.0,
          1724.0,
          1729.0,
          1732.0,
          1737.0,
          1729.0,
          1723.0,
          1726.0,
          1728.0,
          1737.0,
          1738.0,
          1735.0,
          1716.0,
          1719.0,
          1705.0,
          1718.0,
          1724.0,
          1735.0,
          1723.0,
          1733.0,
          1729.0,
          1736.0,
          1734.0,
          1731.0,
          1726.0,
          1734.0,
          1737.0,
          1736.0,
          1733.0,
          1736.0,
          1736.0,
          1734.0,
          1733.0,
          1732.0,
          1724.0,
          1733.0,
          1734.0,
          1732.0,
          1734.0,
          1737.0,
          1725.0,
          1729.0,
          1733.0,
          1727.0,
          1732.0,
          1725.0,
          1728.0,
          1725.0,
          1706.0,
          1713.0,
          1707.0,
          1719.0,
          1727.0,
          1727.0,
          1729.0,
          1741.0,
          1734.0,
          1735.0,
          1738.0,
          1735.0,
          1730.0,
          1730.0,
          1733.0,
          1732.0,
          1737.0
        ]
      },
      "slices": {}
    }
  },
  "dummy_trs": 0,
  "dvars_nstd": 42.303312952301575,
  "dvars_std": 1.381210257063492,
  "dvars_vstd": 1.0903259725396828,
  "efc": 0.5962345918677939,
  "fber": 1441.285400390625,
  "fd_mean": 0.6154371200515243,
  "fd_num": 111,
  "fd_perc": 87.4015748031496,
  "fwhm_avg": 1.7540104118827917,
  "fwhm_x": 1.6431966666666666,
  "fwhm_y": 1.9906133333333333,
  "fwhm_z": 1.6282212356483752,
  "gcor": 0.060972,
  "gsr_x": -0.01318068616092205,
  "gsr_y": 0.05103489011526108,
  "provenance": {
    "md5sum": "9ff72c355e5cb1c424b6506866046e53",
    "settings": {
      "fd_thres": 0.2,
      "testing": false
    },
    "software": "mriqc",
    "version": "22.0.1",
    "webapi_port": null,
    "webapi_url": "https://mriqc.nimh.nih.gov/api/v1"
  },
  "size_t": 127,
  "size_x": 64,
  "size_y": 64,
  "size_z": 34,
  "snr": 6.890223800250107,
  "spacing_tr": 2.3399999141693115,
  "spacing_x": 3.0,
  "spacing_y": 3.0,
  "spacing_z": 3.299999952316284,
  "summary_bg_k": 37.235260223738095,
  "summary_bg_mad": 8.662132758034277,
  "summary_bg_mean": 36.268402099609375,
  "summary_bg_median": 23.64566993713379,
  "summary_bg_n": 68028.0,
  "summary_bg_p05": 13.629920959472656,
  "summary_bg_p95": 102.77401428222647,
  "summary_bg_stdv": 43.63133239746094,
  "summary_fg_k": 2.855893414528812,
  "summary_fg_mad": 122.9159042876833,
  "summary_fg_mean": 924.563720703125,
  "summary_fg_median": 923.283447265625,
  "summary_fg_n": 37601.0,
  "summary_fg_p05": 717.3543090820312,
  "summary_fg_p95": 1123.2283935546875,
  "summary_fg_stdv": 133.9972686767578,
  "tsnr": 48.413793868152425
}