{
  "aor": 0.003850396825396825,
  "aqi": 0.01414501650793651,
  "bids_meta": {
    "AcquisitionMatrixPE": 64,
    "AcquisitionNumber": 1,
    "AcquisitionTime": "13:22:15.987500",
    "BandwidthPerPixelPhaseEncode": 24.038,
    "BaseResolution": 64,
    "BodyPartExamined": "HEAD",
    "ConsistencyInfo": "N4_VD13A_LATEST_20120616",
    "ConversionSoftware": "dcm2niix",
    "ConversionSoftwareVersion": "v1.0.20181125  GCC6.3.0",
    "DerivedVendorReportedEchoSpacing": 0.000650012,
    "DeviceSerialNumber": "45250",
    "DwellTime": 4.6e-06,
    "EchoTime": 0.033,
    "EchoTrainLength": 64,
    "EffectiveEchoSpacing": 0.000650012,
    "FlipAngle": 90,
    "ImageOrientationPatientDICOM": [
      0.999045,
      0.035647,
      -0.0252629,
      -0.0383795,
      0.992326,
      -0.117539
    ],
    "ImageType": [
      "ORIGINAL",
      "PRIMARY",
      "M",
      "ND",
      "NORM",
      "MOSAIC"
    ],
    "ImagingFrequency": 123.22,
    "InPlanePhaseEncodingDirectionDICOM": "COL",
    "InstitutionAddress": "Kopernikusstr._26_Graz_Graz_AT_8010",
    "InstitutionName": "KFU",
    "InstitutionalDepartmentName": "Department",
    "MRAcquisitionType": "2D",
    "MagneticFieldStrength": 3,
    "Manufacturer": "Siemens",
    "ManufacturersModelName": "Skyra",
    "Modality": "MR",
    "PartialFourier": 1,
    "PatientPosition": "HFS",
    "PercentPhaseFOV": 100,
    "PhaseEncodingDirection": "j-",
    "PhaseEncodingSteps": 64,
    "PhaseResolution": 1,
    "PixelBandwidth": 1700,
    "ProcedureStepDescription": "KFU_Entw-Psy",
    "ProtocolName": "fMRI_2",
    "PulseSequenceDetails": "%SiemensSeq%_ep2d_pace",
    "ReceiveCoilActiveElements": "HE1-4",
    "ReceiveCoilName": "HeadNeck_20",
    "ReconMatrixPE": 64,
    "RepetitionTime": 2.34,
    "SAR": 0.188595,
    "ScanOptions": "FS",
    "ScanningSequence": "EP",
    "SequenceName": "_epfid2d1_64",
    "SequenceVariant": "SK",
    "SeriesDescription": "fMRI_2",
    "SeriesNumber": 5,
    "ShimSetting": [
      -1683,
      -3728,
      -4292,
      438,
      435,
      2,
      192,
      -389
    ],
    "SliceThickness": 3,
    "SliceTiming": [
      2.25,
      2.1825,
      2.115,
      2.045,
      1.9775,
      1.91,
      1.84,
      1.7725,
      1.705,
      1.6375,
      1.5675,
      1.5,
      1.4325,
      1.3625,
      1.295,
      1.2275,
      1.16,
      1.09,
      1.0225,
      0.955,
      0.885,
      0.8175,
      0.75,
      0.68,
      0.6125,
      0.545,
      0.4775,
      0.4075,
      0.34,
      0.2725,
      0.2025,
      0.135,
      0.0675,
      0
    ],
    "SoftwareVersions": "syngo_MR_D13",
    "SpacingBetweenSlices": 3.3,
    "StationName": "FBMTMR1",
    "TaskName": "read",
    "TotalReadoutTime": 0.0409508,
    "TxRefAmp": 329.566,
    "dataset": "ds003126",
    "dcmmeta_affine": [
      [
        -2.9971351623535156,
        -0.11513849347829819,
        -0.06890127062797546,
        96.50537109375
      ],
      [
        -0.10694102197885513,
        2.9769790172576904,
        -0.39070820808410645,
        -103.5572280883789
      ],
      [
        -0.07578884810209274,
        0.3526172637939453,
        3.27606463432312,
        -22.13321304321289
      ],
      [
        0.0,
        0.0,
        0.0,
        1.0
      ]
    ],
    "dcmmeta_reorient_transform": [
      [
        0.0,
        -1.0,
        0.0,
        63.0
      ],
      [
        1.0,
        0.0,
        0.0,
        0.0
      ],
      [
        0.0,
        0.0,
        1.0,
        0.0
      ],
      [
        0.0,
        0.0,
        0.0,
        1.0
      ]
    ],
    "dcmmeta_shape": [
      64,
      64,
      34,
      126
    ],
    "dcmmeta_slice_dim": 2,
    "dcmmeta_version": 0.6,
    "global": {
      "const": {
        "AcquisitionMatrix": [
          64,
          0,
          0,
          64
        ],
        "AngioFlag": "N",
        "BitsAllocated": 16,
        "BitsStored": 12,
        "BodyPartExamined": "HEAD",
        "Columns": 384,
        "EchoNumbers": 1,
        "EchoTime": 33.0,
        "EchoTrainLength": 64,
        "FlipAngle": 90.0,
        "HighBit": 11,
        "ImageOrientationPatient": [
          0.99904508121005,
          0.03564700719816,
          -0.0252629489139,
          -0.0383794977193,
          0.99232634575536,
          -0.1175390899856
        ],
        "ImagePositionPatient": [
          -550.37112586752,
          -577.41965909084,
          68.626654116517
        ],
        "ImageType": [
          "ORIGINAL",
          "PRIMARY",
          "M",
          "ND",
          "NORM",
          "MOSAIC"
        ],
        "ImagedNucleus": "1H",
        "ImagingFrequency": 123.220123,
        "InPlanePhaseEncodingDirection": "COL",
        "MRAcquisitionType": "2D",
        "MagneticFieldStrength": 3.0,
        "Manufacturer": "SIEMENS",
        "ManufacturerModelName": "Skyra",
        "Modality": "MR",
        "NumberOfAverages": 1.0,
        "NumberOfPhaseEncodingSteps": 64,
        "PercentPhaseFieldOfView": 100.0,
        "PercentSampling": 100.0,
        "PerformedProcedureStepStartTime": "130954.046000",
        "PhotometricInterpretation": "MONOCHROME2",
        "PixelBandwidth": 1700.0,
        "PixelRepresentation": 0,
        "PixelSpacing": [
          3.0,
          3.0
        ],
        "ProtocolName": "fMRI_2",
        "RepetitionTime": 2340.0,
        "Rows": 384,
        "SAR": 0.18859481663002,
        "SamplesPerPixel": 1,
        "ScanOptions": "FS",
        "ScanningSequence": "EP",
        "SequenceName": "*epfid2d1_64",
        "SequenceVariant": "SK",
        "SeriesDescription": "fMRI_2",
        "SeriesNumber": 5,
        "SeriesTime": "132315.662000",
        "SliceLocation": -11.726823613717,
        "SliceThickness": 3.0,
        "SmallestImagePixelValue": 0,
        "SoftwareVersions": "syngo MR D13",
        "SpacingBetweenSlices": 3.299999915504,
        "SpecificCharacterSet": "ISO_IR 100",
        "StudyID": "1",
        "StudyTime": "130953.993000",
        "TransmitCoilName": "Body",
        "VariableFlipAngleFlag": "N",
        "WindowCenterWidthExplanation": "Algo1",
        "dBdt": 0.0
      },
      "slices": {}
    },
    "modality": "bold",
    "run_id": 2,
    "session_id": "2",
    "subject_id": "047EPKL013057",
    "task_id": "read",
    "time": {
      "samples": {
        "AcquisitionNumber": [
          1,
          2,
          3,
          4,
          5,
          6,
          7,
          8,
          9,
          10,
          11,
          12,
          13,
          14,
          15,
          16,
          17,
          18,
          19,
          20,
          21,
          22,
          23,
          24,
          25,
          26,
          27,
          28,
          29,
          30,
          31,
          32,
          33,
          34,
          35,
          36,
          37,
          38,
          39,
          40,
          41,
          42,
          43,
          44,
          45,
          46,
          47,
          48,
          49,
          50,
          51,
          52,
          53,
          54,
          55,
          56,
          57,
          58,
          59,
          60,
          61,
          62,
          63,
          64,
          65,
          66,
          67,
          68,
          69,
          70,
          71,
          72,
          73,
          74,
          75,
          76,
          77,
          78,
          79,
          80,
          81,
          82,
          83,
          84,
          85,
          86,
          87,
          88,
          89,
          90,
          91,
          92,
          93,
          94,
          95,
          96,
          97,
          98,
          99,
          100,
          101,
          102,
          103,
          104,
          105,
          106,
          107,
          108,
          109,
          110,
          111,
          112,
          113,
          114,
          115,
          116,
          117,
          118,
          119,
          120,
          121,
          122,
          123,
          124,
          125,
          126
        ],
        "AcquisitionTime": [
          "132215.987500",
          "132218.327500",
          "132220.667500",
          "132223.007500",
          "132225.347500",
          "132227.687500",
          "132230.027500",
          "132232.367500",
          "132234.707500",
          "132237.047500",
          "132239.387500",
          "132241.727500",
          "132244.067500",
          "132246.407500",
          "132248.747500",
          "132251.087500",
          "132253.427500",
          "132255.767500",
          "132258.107500",
          "132300.447500",
          "132302.787500",
          "132305.127500",
          "132307.467500",
          "132309.807500",
          "132312.147500",
          "132314.487500",
          "132316.827500",
          "132319.167500",
          "132321.507500",
          "132323.847500",
          "132326.187500",
          "132328.527500",
          "132330.867500",
          "132333.207500",
          "132335.547500",
          "132337.887500",
          "132340.227500",
          "132342.567500",
          "132344.907500",
          "132347.247500",
          "132349.587500",
          "132351.927500",
          "132354.267500",
          "132356.607500",
          "132358.947500",
          "132401.287500",
          "132403.627500",
          "132405.967500",
          "132408.307500",
          "132410.647500",
          "132412.987500",
          "132415.327500",
          "132417.667500",
          "132420.007500",
          "132422.347500",
          "132424.687500",
          "132427.027500",
          "132429.367500",
          "132431.707500",
          "132434.047500",
          "132436.387500",
          "132438.727500",
          "132441.067500",
          "132443.407500",
          "132445.747500",
          "132448.087500",
          "132450.427500",
          "132452.767500",
          "132455.107500",
          "132457.447500",
          "132459.787500",
          "132502.127500",
          "132504.467500",
          "132506.807500",
          "132509.147500",
          "132511.487500",
          "132513.827500",
          "132516.167500",
          "132518.507500",
          "132520.847500",
          "132523.187500",
          "132525.527500",
          "132527.867500",
          "132530.207500",
          "132532.547500",
          "132534.887500",
          "132537.227500",
          "132539.567500",
          "132541.907500",
          "132544.247500",
          "132546.587500",
          "132548.927500",
          "132551.267500",
          "132553.607500",
          "132555.947500",
          "132558.287500",
          "132600.627500",
          "132602.967500",
          "132605.307500",
          "132607.647500",
          "132609.987500",
          "132612.327500",
          "132614.667500",
          "132617.007500",
          "132619.347500",
          "132621.687500",
          "132624.027500",
          "132626.367500",
          "132628.707500",
          "132631.047500",
          "132633.387500",
          "132635.727500",
          "132638.067500",
          "132640.407500",
          "132642.747500",
          "132645.087500",
          "132647.427500",
          "132649.767500",
          "132652.107500",
          "132654.447500",
          "132656.787500",
          "132659.127500",
          "132701.467500",
          "132703.807500",
          "132706.147500",
          "132708.487500"
        ],
        "ContentTime": [
          "132315.667000",
          "132315.671000",
          "132315.673000",
          "132315.676000",
          "132315.679000",
          "132315.681000",
          "132315.684000",
          "132315.687000",
          "132315.689000",
          "132315.692000",
          "132315.694000",
          "132315.697000",
          "132315.700000",
          "132315.703000",
          "132315.706000",
          "132315.708000",
          "132315.711000",
          "132315.714000",
          "132315.717000",
          "132315.731000",
          "132315.733000",
          "132315.736000",
          "132315.739000",
          "132315.741000",
          "132315.744000",
          "132315.746000",
          "132415.661000",
          "132415.664000",
          "132415.667000",
          "132415.670000",
          "132415.674000",
          "132415.677000",
          "132415.680000",
          "132415.682000",
          "132415.685000",
          "132415.688000",
          "132415.690000",
          "132415.693000",
          "132415.696000",
          "132415.698000",
          "132415.701000",
          "132415.704000",
          "132415.710000",
          "132415.713000",
          "132415.716000",
          "132415.718000",
          "132415.721000",
          "132415.724000",
          "132415.726000",
          "132415.729000",
          "132415.732000",
          "132515.661000",
          "132515.665000",
          "132515.668000",
          "132515.670000",
          "132515.673000",
          "132515.676000",
          "132515.679000",
          "132515.682000",
          "132515.684000",
          "132515.687000",
          "132515.690000",
          "132515.692000",
          "132515.695000",
          "132515.697000",
          "132515.700000",
          "132515.703000",
          "132515.706000",
          "132515.708000",
          "132515.711000",
          "132515.720000",
          "132515.723000",
          "132515.725000",
          "132515.728000",
          "132515.731000",
          "132515.733000",
          "132515.736000",
          "132615.661000",
          "132615.664000",
          "132615.666000",
          "132615.669000",
          "132615.672000",
          "132615.674000",
          "132615.677000",
          "132615.680000",
          "132615.682000",
          "132615.685000",
          "132615.687000",
          "132615.690000",
          "132615.699000",
          "132615.702000",
          "132615.704000",
          "132615.707000",
          "132615.710000",
          "132615.712000",
          "132615.715000",
          "132615.717000",
          "132615.720000",
          "132615.723000",
          "132615.726000",
          "132615.728000",
          "132615.731000",
          "132615.733000",
          "132710.046000",
          "132710.055000",
          "132710.064000",
          "132710.067000",
          "132710.069000",
          "132710.072000",
          "132710.075000",
          "132710.078000",
          "132710.080000",
          "132710.083000",
          "132710.086000",
          "132710.089000",
          "132710.091000",
          "132710.094000",
          "132710.097000",
          "132710.100000",
          "132710.102000",
          "132710.105000",
          "132710.108000",
          "132710.111000",
          "132710.113000",
          "132710.116000",
          "132710.119000"
        ],
        "InstanceCreationTime": [
          "132315.667000",
          "132315.671000",
          "132315.673000",
          "132315.676000",
          "132315.679000",
          "132315.681000",
          "132315.684000",
          "132315.687000",
          "132315.689000",
          "132315.692000",
          "132315.694000",
          "132315.697000",
          "132315.700000",
          "132315.703000",
          "132315.706000",
          "132315.708000",
          "132315.711000",
          "132315.714000",
          "132315.717000",
          "132315.731000",
          "132315.733000",
          "132315.736000",
          "132315.739000",
          "132315.741000",
          "132315.744000",
          "132315.746000",
          "132415.661000",
          "132415.664000",
          "132415.667000",
          "132415.670000",
          "132415.674000",
          "132415.677000",
          "132415.680000",
          "132415.682000",
          "132415.685000",
          "132415.688000",
          "132415.690000",
          "132415.693000",
          "132415.696000",
          "132415.698000",
          "132415.701000",
          "132415.704000",
          "132415.710000",
          "132415.713000",
          "132415.716000",
          "132415.718000",
          "132415.721000",
          "132415.724000",
          "132415.726000",
          "132415.729000",
          "132415.732000",
          "132515.661000",
          "132515.665000",
          "132515.668000",
          "132515.670000",
          "132515.673000",
          "132515.676000",
          "132515.679000",
          "132515.682000",
          "132515.684000",
          "132515.687000",
          "132515.690000",
          "132515.692000",
          "132515.695000",
          "132515.697000",
          "132515.700000",
          "132515.703000",
          "132515.706000",
          "132515.708000",
          "132515.711000",
          "132515.720000",
          "132515.723000",
          "132515.725000",
          "132515.728000",
          "132515.731000",
          "132515.733000",
          "132515.736000",
          "132615.661000",
          "132615.664000",
          "132615.666000",
          "132615.669000",
          "132615.672000",
          "132615.674000",
          "132615.677000",
          "132615.680000",
          "132615.682000",
          "132615.685000",
          "132615.687000",
          "132615.690000",
          "132615.699000",
          "132615.702000",
          "132615.704000",
          "132615.707000",
          "132615.710000",
          "132615.712000",
          "132615.715000",
          "132615.717000",
          "132615.720000",
          "132615.723000",
          "132615.726000",
          "132615.728000",
          "132615.731000",
          "132615.733000",
          "132710.046000",
          "132710.055000",
          "132710.064000",
          "132710.067000",
          "132710.069000",
          "132710.072000",
          "132710.075000",
          "132710.078000",
          "132710.080000",
          "132710.083000",
          "132710.086000",
          "132710.089000",
          "132710.091000",
          "132710.094000",
          "132710.097000",
          "132710.100000",
          "132710.102000",
          "132710.105000",
          "132710.108000",
          "132710.111000",
          "132710.113000",
          "132710.116000",
          "132710.119000"
        ],
        "InstanceNumber": [
          1,
          2,
          3,
          4,
          5,
          6,
          7,
          8,
          9,
          10,
          11,
          12,
          13,
          14,
          15,
          16,
          17,
          18,
          19,
          20,
          21,
          22,
          23,
          24,
          25,
          26,
          27,
          28,
          29,
          30,
          31,
          32,
          33,
          34,
          35,
          36,
          37,
          38,
          39,
          40,
          41,
          42,
          43,
          44,
          45,
          46,
          47,
          48,
          49,
          50,
          51,
          52,
          53,
          54,
          55,
          56,
          57,
          58,
          59,
          60,
          61,
          62,
          63,
          64,
          65,
          66,
          67,
          68,
          69,
          70,
          71,
          72,
          73,
          74,
          75,
          76,
          77,
          78,
          79,
          80,
          81,
          82,
          83,
          84,
          85,
          86,
          87,
          88,
          89,
          90,
          91,
          92,
          93,
          94,
          95,
          96,
          97,
          98,
          99,
          100,
          101,
          102,
          103,
          104,
          105,
          106,
          107,
          108,
          109,
          110,
          111,
          112,
          113,
          114,
          115,
          116,
          117,
          118,
          119,
          120,
          121,
          122,
          123,
          124,
          125,
          126
        ],
        "LargestImagePixelValue": [
          2682,
          2327,
          2233,
          1795,
          1991,
          2026,
          2019,
          2288,
          2178,
          2281,
          2419,
          1991,
          1983,
          1817,
          2141,
          2333,
          1950,
          2289,
          2213,
          2406,
          2199,
          2232,
          1857,
          2151,
          1848,
          2080,
          2219,
          2060,
          2472,
          1849,
          2057,
          2352,
          2047,
          2132,
          2266,
          2140,
          2186,
          2412,
          1759,
          1985,
          1951,
          1996,
          1811,
          1839,
          2299,
          2169,
          2301,
          1974,
          2028,
          2011,
          2273,
          2212,
          1879,
          2161,
          2162,
          2032,
          2051,
          2080,
          2025,
          1980,
          2193,
          2153,
          1917,
          1841,
          2057,
          2216,
          2387,
          2081,
          1935,
          2275,
          1932,
          2102,
          2468,
          2294,
          1989,
          2067,
          2161,
          1928,
          1940,
          2097,
          2045,
          2326,
          2363,
          2137,
          1973,
          2029,
          1942,
          2061,
          2259,
          2031,
          2198,
          2280,
          1962,
          1936,
          2202,
          2009,
          2082,
          2186,
          1976,
          2028,
          2100,
          2006,
          2289,
          1845,
          2236,
          2017,
          2208,
          2215,
          2085,
          2308,
          1795,
          1988,
          2056,
          2464,
          2457,
          2342,
          2006,
          2117,
          1978,
          2027,
          2025,
          2274,
          2462,
          2054,
          2111,
          2095
        ],
        "WindowCenter": [
          741.0,
          738.0,
          738.0,
          737.0,
          744.0,
          741.0,
          740.0,
          739.0,
          740.0,
          739.0,
          739.0,
          740.0,
          739.0,
          742.0,
          741.0,
          742.0,
          740.0,
          741.0,
          742.0,
          741.0,
          739.0,
          740.0,
          739.0,
          740.0,
          742.0,
          743.0,
          742.0,
          741.0,
          740.0,
          739.0,
          742.0,
          742.0,
          741.0,
          741.0,
          740.0,
          740.0,
          739.0,
          740.0,
          739.0,
          741.0,
          738.0,
          742.0,
          741.0,
          743.0,
          741.0,
          740.0,
          741.0,
          740.0,
          741.0,
          743.0,
          743.0,
          743.0,
          740.0,
          744.0,
          742.0,
          741.0,
          741.0,
          742.0,
          742.0,
          742.0,
          742.0,
          742.0,
          739.0,
          740.0,
          743.0,
          743.0,
          741.0,
          741.0,
          741.0,
          741.0,
          741.0,
          743.0,
          743.0,
          743.0,
          742.0,
          743.0,
          743.0,
          742.0,
          742.0,
          745.0,
          742.0,
          742.0,
          742.0,
          741.0,
          741.0,
          741.0,
          742.0,
          745.0,
          744.0,
          742.0,
          741.0,
          741.0,
          742.0,
          742.0,
          743.0,
          742.0,
          742.0,
          744.0,
          743.0,
          744.0,
          744.0,
          743.0,
          743.0,
          743.0,
          743.0,
          742.0,
          743.0,
          742.0,
          742.0,
          743.0,
          741.0,
          743.0,
          743.0,
          743.0,
          742.0,
          744.0,
          743.0,
          741.0,
          742.0,
          743.0,
          746.0,
          746.0,
          744.0,
          744.0,
          741.0,
          741.0
        ],
        "WindowWidth": [
          1577.0,
          1569.0,
          1570.0,
          1570.0,
          1582.0,
          1577.0,
          1574.0,
          1574.0,
          1575.0,
          1573.0,
          1574.0,
          1573.0,
          1572.0,
          1582.0,
          1580.0,
          1581.0,
          1575.0,
          1578.0,
          1580.0,
          1576.0,
          1573.0,
          1577.0,
          1572.0,
          1578.0,
          1578.0,
          1582.0,
          1579.0,
          1577.0,
          1577.0,
          1572.0,
          1579.0,
          1582.0,
          1577.0,
          1578.0,
          1576.0,
          1576.0,
          1572.0,
          1577.0,
          1574.0,
          1578.0,
          1573.0,
          1580.0,
          1578.0,
          1584.0,
          1580.0,
          1576.0,
          1579.0,
          1575.0,
          1577.0,
          1584.0,
          1583.0,
          1584.0,
          1575.0,
          1585.0,
          1581.0,
          1577.0,
          1580.0,
          1579.0,
          1579.0,
          1580.0,
          1580.0,
          1582.0,
          1574.0,
          1576.0,
          1584.0,
          1582.0,
          1578.0,
          1579.0,
          1577.0,
          1579.0,
          1579.0,
          1583.0,
          1583.0,
          1582.0,
          1580.0,
          1585.0,
          1582.0,
          1580.0,
          1583.0,
          1589.0,
          1581.0,
          1582.0,
          1581.0,
          1578.0,
          1578.0,
          1577.0,
          1579.0,
          1588.0,
          1586.0,
          1581.0,
          1579.0,
          1580.0,
          1579.0,
          1581.0,
          1583.0,
          1581.0,
          1581.0,
          1585.0,
          1583.0,
          1587.0,
          1586.0,
          1583.0,
          1584.0,
          1582.0,
          1584.0,
          1581.0,
          1583.0,
          1581.0,
          1581.0,
          1583.0,
          1577.0,
          1584.0,
          1583.0,
          1583.0,
          1582.0,
          1585.0,
          1582.0,
          1578.0,
          1580.0,
          1583.0,
          1590.0,
          1591.0,
          1586.0,
          1584.0,
          1579.0,
          1579.0
        ]
      },
      "slices": {}
    }
  },
  "dummy_trs": 0,
  "dvars_nstd": 34.88543138184002,
  "dvars_std": 1.3341083456799998,
  "dvars_vstd": 1.04584446488,
  "efc": 0.538908798660148,
  "fber": 1748.5966796875,
  "fd_mean": 0.46181491402198505,
  "fd_num": 107,
  "fd_perc": 84.92063492063492,
  "fwhm_avg": 1.5914611182977054,
  "fwhm_x": 1.4804899999999999,
  "fwhm_y": 1.8018266666666667,
  "fwhm_z": 1.4920666882264497,
  "gcor": 0.0408574,
  "gsr_x": -0.01638258807361126,
  "gsr_y": 0.045320410281419754,
  "provenance": {
    "md5sum": "78a53f0e5dacf4a724cb5906b44f62d6",
    "settings": {
      "fd_thres": 0.2,
      "testing": false
    },
    "software": "mriqc",
    "version": "22.0.1",
    "webapi_port": null,
    "webapi_url": "https://mriqc.nimh.nih.gov/api/v1"
  },
  "size_t": 126,
  "size_x": 64,
  "size_y": 64,
  "size_z": 34,
  "snr": 7.641502386374444,
  "spacing_tr": 2.3399999141693115,
  "spacing_x": 3.0,
  "spacing_y": 3.0,
  "spacing_z": 3.299999952316284,
  "summary_bg_k": 53.1627264202918,
  "summary_bg_mad": 7.024711992739993,
  "summary_bg_mean": 34.675086975097656,
  "summary_bg_median": 20.4920654296875,
  "summary_bg_n": 78477.0,
  "summary_bg_p05": 13.119048118591309,
  "summary_bg_p95": 92.38572082519525,
  "summary_bg_stdv": 55.441524505615234,
  "summary_fg_k": 3.7269283566993465,
  "summary_fg_mad": 107.68864563797555,
  "summary_fg_mean": 872.3482666015625,
  "summary_fg_median": 874.4127197265625,
  "summary_fg_n": 29009.0,
  "summary_fg_p05": 702.5730590820312,
  "summary_fg_p95": 1035.8555908203123,
  "summary_fg_stdv": 114.42745208740234,
  "tsnr": 58.71963552071247
}