{
  "aor": 0.005315039370078739,
  "aqi": 0.023224812125984255,
  "bids_meta": {
    "AcquisitionMatrixPE": 64,
    "AcquisitionNumber": 1,
    "AcquisitionTime": "13:27:56.797500",
    "BandwidthPerPixelPhaseEncode": 24.038,
    "BaseResolution": 64,
    "BodyPartExamined": "HEAD",
    "ConsistencyInfo": "N4_VD13A_LATEST_20120616",
    "ConversionSoftware": "dcm2niix",
    "ConversionSoftwareVersion": "v1.0.20181125  GCC6.3.0",
    "DerivedVendorReportedEchoSpacing": 0.000650012,
    "DeviceSerialNumber": "45250",
    "DwellTime": 4.6e-06,
    "EchoTime": 0.033,
    "EchoTrainLength": 64,
    "EffectiveEchoSpacing": 0.000650012,
    "FlipAngle": 90,
    "ImageOrientationPatientDICOM": [
      0.999045,
      0.035647,
      -0.0252629,
      -0.0383795,
      0.992326,
      -0.117539
    ],
    "ImageType": [
      "ORIGINAL",
      "PRIMARY",
      "M",
      "ND",
      "NORM",
      "MOSAIC"
    ],
    "ImagingFrequency": 123.22,
    "InPlanePhaseEncodingDirectionDICOM": "COL",
    "InstitutionAddress": "Kopernikusstr._26_Graz_Graz_AT_8010",
    "InstitutionName": "KFU",
    "InstitutionalDepartmentName": "Department",
    "MRAcquisitionType": "2D",
    "MagneticFieldStrength": 3,
    "Manufacturer": "Siemens",
    "ManufacturersModelName": "Skyra",
    "Modality": "MR",
    "PartialFourier": 1,
    "PatientPosition": "HFS",
    "PercentPhaseFOV": 100,
    "PhaseEncodingDirection": "j-",
    "PhaseEncodingSteps": 64,
    "PhaseResolution": 1,
    "PixelBandwidth": 1700,
    "ProcedureStepDescription": "KFU_Entw-Psy",
    "ProtocolName": "fMRI_3",
    "PulseSequenceDetails": "%SiemensSeq%_ep2d_pace",
    "ReceiveCoilActiveElements": "HE1-4",
    "ReceiveCoilName": "HeadNeck_20",
    "ReconMatrixPE": 64,
    "RepetitionTime": 2.34,
    "SAR": 0.188595,
    "ScanOptions": "FS",
    "ScanningSequence": "EP",
    "SequenceName": "_epfid2d1_64",
    "SequenceVariant": "SK",
    "SeriesDescription": "fMRI_3",
    "SeriesNumber": 8,
    "ShimSetting": [
      -1683,
      -3728,
      -4292,
      438,
      435,
      2,
      192,
      -389
    ],
    "SliceThickness": 3,
    "SliceTiming": [
      2.25,
      2.1825,
      2.115,
      2.0475,
      1.9775,
      1.91,
      1.8425,
      1.7725,
      1.705,
      1.6375,
      1.57,
      1.5,
      1.4325,
      1.365,
      1.295,
      1.2275,
      1.16,
      1.09,
      1.0225,
      0.955,
      0.8875,
      0.8175,
      0.75,
      0.6825,
      0.6125,
      0.545,
      0.4775,
      0.41,
      0.34,
      0.2725,
      0.205,
      0.135,
      0.0675,
      0
    ],
    "SoftwareVersions": "syngo_MR_D13",
    "SpacingBetweenSlices": 3.3,
    "StationName": "FBMTMR1",
    "TaskName": "read",
    "TotalReadoutTime": 0.0409508,
    "TxRefAmp": 329.566,
    "dataset": "ds003126",
    "dcmmeta_affine": [
      [
        -2.9971351623535156,
        -0.11513849347829819,
        -0.06890127062797546,
        96.50537109375
      ],
      [
        -0.10694102197885513,
        2.9769790172576904,
        -0.39070820808410645,
        -103.5572280883789
      ],
      [
        -0.07578884810209274,
        0.3526172637939453,
        3.27606463432312,
        -22.13321304321289
      ],
      [
        0.0,
        0.0,
        0.0,
        1.0
      ]
    ],
    "dcmmeta_reorient_transform": [
      [
        0.0,
        -1.0,
        0.0,
        63.0
      ],
      [
        1.0,
        0.0,
        0.0,
        0.0
      ],
      [
        0.0,
        0.0,
        1.0,
        0.0
      ],
      [
        0.0,
        0.0,
        0.0,
        1.0
      ]
    ],
    "dcmmeta_shape": [
      64,
      64,
      34,
      127
    ],
    "dcmmeta_slice_dim": 2,
    "dcmmeta_version": 0.6,
    "global": {
      "const": {
        "AcquisitionMatrix": [
          64,
          0,
          0,
          64
        ],
        "AngioFlag": "N",
        "BitsAllocated": 16,
        "BitsStored": 12,
        "BodyPartExamined": "HEAD",
        "Columns": 384,
        "EchoNumbers": 1,
        "EchoTime": 33.0,
        "EchoTrainLength": 64,
        "FlipAngle": 90.0,
        "HighBit": 11,
        "ImageOrientationPatient": [
          0.99904508121005,
          0.03564700719816,
          -0.0252629489139,
          -0.0383794977193,
          0.99232634575536,
          -0.1175390899856
        ],
        "ImagePositionPatient": [
          -550.37112586752,
          -577.41965909084,
          68.626654116517
        ],
        "ImageType": [
          "ORIGINAL",
          "PRIMARY",
          "M",
          "ND",
          "NORM",
          "MOSAIC"
        ],
        "ImagedNucleus": "1H",
        "ImagingFrequency": 123.22013,
        "InPlanePhaseEncodingDirection": "COL",
        "MRAcquisitionType": "2D",
        "MagneticFieldStrength": 3.0,
        "Manufacturer": "SIEMENS",
        "ManufacturerModelName": "Skyra",
        "Modality": "MR",
        "NumberOfAverages": 1.0,
        "NumberOfPhaseEncodingSteps": 64,
        "PercentPhaseFieldOfView": 100.0,
        "PercentSampling": 100.0,
        "PerformedProcedureStepStartTime": "130954.046000",
        "PhotometricInterpretation": "MONOCHROME2",
        "PixelBandwidth": 1700.0,
        "PixelRepresentation": 0,
        "PixelSpacing": [
          3.0,
          3.0
        ],
        "ProtocolName": "fMRI_3",
        "RepetitionTime": 2340.0,
        "Rows": 384,
        "SAR": 0.18859481663002,
        "SamplesPerPixel": 1,
        "ScanOptions": "FS",
        "ScanningSequence": "EP",
        "SequenceName": "*epfid2d1_64",
        "SequenceVariant": "SK",
        "SeriesDescription": "fMRI_3",
        "SeriesNumber": 8,
        "SeriesTime": "132900.369000",
        "SliceLocation": -11.726823613717,
        "SliceThickness": 3.0,
        "SmallestImagePixelValue": 0,
        "SoftwareVersions": "syngo MR D13",
        "SpacingBetweenSlices": 3.299999915504,
        "SpecificCharacterSet": "ISO_IR 100",
        "StudyID": "1",
        "StudyTime": "130953.993000",
        "TransmitCoilName": "Body",
        "VariableFlipAngleFlag": "N",
        "WindowCenterWidthExplanation": "Algo1",
        "dBdt": 0.0
      },
      "slices": {}
    },
    "modality": "bold",
    "run_id": 3,
    "session_id": "2",
    "subject_id": "047EPKL013057",
    "task_id": "read",
    "time": {
      "samples": {
        "AcquisitionNumber": [
          1,
          2,
          3,
          4,
          5,
          6,
          7,
          8,
          9,
          10,
          11,
          12,
          13,
          14,
          15,
          16,
          17,
          18,
          19,
          20,
          21,
          22,
          23,
          24,
          25,
          26,
          27,
          28,
          29,
          30,
          31,
          32,
          33,
          34,
          35,
          36,
          37,
          38,
          39,
          40,
          41,
          42,
          43,
          44,
          45,
          46,
          47,
          48,
          49,
          50,
          51,
          52,
          53,
          54,
          55,
          56,
          57,
          58,
          59,
          60,
          61,
          62,
          63,
          64,
          65,
          66,
          67,
          68,
          69,
          70,
          71,
          72,
          73,
          74,
          75,
          76,
          77,
          78,
          79,
          80,
          81,
          82,
          83,
          84,
          85,
          86,
          87,
          88,
          89,
          90,
          91,
          92,
          93,
          94,
          95,
          96,
          97,
          98,
          99,
          100,
          101,
          102,
          103,
          104,
          105,
          106,
          107,
          108,
          109,
          110,
          111,
          112,
          113,
          114,
          115,
          116,
          117,
          118,
          119,
          120,
          121,
          122,
          123,
          124,
          125,
          126,
          127
        ],
        "AcquisitionTime": [
          "132756.797500",
          "132759.137500",
          "132801.477500",
          "132803.817500",
          "132806.157500",
          "132808.497500",
          "132810.837500",
          "132813.177500",
          "132815.517500",
          "132817.857500",
          "132820.197500",
          "132822.537500",
          "132824.877500",
          "132827.217500",
          "132829.557500",
          "132831.897500",
          "132834.237500",
          "132836.577500",
          "132838.917500",
          "132841.257500",
          "132843.597500",
          "132845.937500",
          "132848.277500",
          "132850.617500",
          "132852.957500",
          "132855.297500",
          "132857.637500",
          "132859.977500",
          "132902.317500",
          "132904.657500",
          "132906.997500",
          "132909.337500",
          "132911.677500",
          "132914.017500",
          "132916.357500",
          "132918.697500",
          "132921.037500",
          "132923.377500",
          "132925.717500",
          "132928.057500",
          "132930.397500",
          "132932.737500",
          "132935.077500",
          "132937.417500",
          "132939.757500",
          "132942.097500",
          "132944.437500",
          "132946.777500",
          "132949.117500",
          "132951.457500",
          "132953.797500",
          "132956.137500",
          "132958.477500",
          "133000.817500",
          "133003.157500",
          "133005.497500",
          "133007.837500",
          "133010.177500",
          "133012.517500",
          "133014.857500",
          "133017.197500",
          "133019.537500",
          "133021.877500",
          "133024.217500",
          "133026.557500",
          "133028.897500",
          "133031.237500",
          "133033.577500",
          "133035.917500",
          "133038.257500",
          "133040.597500",
          "133042.937500",
          "133045.277500",
          "133047.617500",
          "133049.957500",
          "133052.297500",
          "133054.637500",
          "133056.977500",
          "133059.317500",
          "133101.657500",
          "133103.997500",
          "133106.337500",
          "133108.677500",
          "133111.017500",
          "133113.357500",
          "133115.697500",
          "133118.037500",
          "133120.377500",
          "133122.717500",
          "133125.057500",
          "133127.397500",
          "133129.737500",
          "133132.077500",
          "133134.417500",
          "133136.757500",
          "133139.097500",
          "133141.437500",
          "133143.777500",
          "133146.117500",
          "133148.457500",
          "133150.797500",
          "133153.137500",
          "133155.477500",
          "133157.817500",
          "133200.157500",
          "133202.497500",
          "133204.837500",
          "133207.177500",
          "133209.517500",
          "133211.857500",
          "133214.197500",
          "133216.537500",
          "133218.877500",
          "133221.217500",
          "133223.557500",
          "133225.897500",
          "133228.237500",
          "133230.577500",
          "133232.917500",
          "133235.257500",
          "133237.597500",
          "133239.937500",
          "133242.277500",
          "133244.617500",
          "133246.957500",
          "133249.297500",
          "133251.637500"
        ],
        "ContentTime": [
          "132900.374000",
          "132900.378000",
          "132900.380000",
          "132900.383000",
          "132900.386000",
          "132900.388000",
          "132900.391000",
          "132900.394000",
          "132900.396000",
          "132900.399000",
          "132900.402000",
          "132900.404000",
          "132900.407000",
          "132900.410000",
          "132900.412000",
          "132900.422000",
          "132900.425000",
          "132900.427000",
          "132900.430000",
          "132900.445000",
          "132900.448000",
          "132900.450000",
          "132900.453000",
          "132900.456000",
          "132900.458000",
          "132900.461000",
          "132900.463000",
          "133000.367000",
          "133000.370000",
          "133000.373000",
          "133000.375000",
          "133000.378000",
          "133000.380000",
          "133000.383000",
          "133000.386000",
          "133000.388000",
          "133000.391000",
          "133000.394000",
          "133000.397000",
          "133000.399000",
          "133000.411000",
          "133000.413000",
          "133000.416000",
          "133000.419000",
          "133000.421000",
          "133000.424000",
          "133000.426000",
          "133000.429000",
          "133000.432000",
          "133000.435000",
          "133000.437000",
          "133000.440000",
          "133000.443000",
          "133100.367000",
          "133100.370000",
          "133100.373000",
          "133100.376000",
          "133100.378000",
          "133100.381000",
          "133100.383000",
          "133100.386000",
          "133100.388000",
          "133100.391000",
          "133100.394000",
          "133100.397000",
          "133100.399000",
          "133100.402000",
          "133100.405000",
          "133100.407000",
          "133100.410000",
          "133100.413000",
          "133100.415000",
          "133100.418000",
          "133100.420000",
          "133100.427000",
          "133100.430000",
          "133100.432000",
          "133100.435000",
          "133100.437000",
          "133200.367000",
          "133200.370000",
          "133200.373000",
          "133200.375000",
          "133200.378000",
          "133200.380000",
          "133200.383000",
          "133200.386000",
          "133200.388000",
          "133200.391000",
          "133200.394000",
          "133200.396000",
          "133200.399000",
          "133200.402000",
          "133200.404000",
          "133200.418000",
          "133200.420000",
          "133200.423000",
          "133200.426000",
          "133200.429000",
          "133200.431000",
          "133200.434000",
          "133200.436000",
          "133200.439000",
          "133200.442000",
          "133253.359000",
          "133253.362000",
          "133253.365000",
          "133253.368000",
          "133253.370000",
          "133253.373000",
          "133253.377000",
          "133253.381000",
          "133253.385000",
          "133253.390000",
          "133253.394000",
          "133253.397000",
          "133253.401000",
          "133253.405000",
          "133253.409000",
          "133253.414000",
          "133253.418000",
          "133253.422000",
          "133253.426000",
          "133253.431000",
          "133253.435000",
          "133253.439000",
          "133253.444000"
        ],
        "InstanceCreationTime": [
          "132900.374000",
          "132900.378000",
          "132900.380000",
          "132900.383000",
          "132900.386000",
          "132900.388000",
          "132900.391000",
          "132900.394000",
          "132900.396000",
          "132900.399000",
          "132900.402000",
          "132900.404000",
          "132900.407000",
          "132900.410000",
          "132900.412000",
          "132900.422000",
          "132900.425000",
          "132900.427000",
          "132900.430000",
          "132900.445000",
          "132900.448000",
          "132900.450000",
          "132900.453000",
          "132900.456000",
          "132900.458000",
          "132900.461000",
          "132900.463000",
          "133000.367000",
          "133000.370000",
          "133000.373000",
          "133000.375000",
          "133000.378000",
          "133000.380000",
          "133000.383000",
          "133000.386000",
          "133000.388000",
          "133000.391000",
          "133000.394000",
          "133000.397000",
          "133000.399000",
          "133000.411000",
          "133000.413000",
          "133000.416000",
          "133000.419000",
          "133000.421000",
          "133000.424000",
          "133000.426000",
          "133000.429000",
          "133000.432000",
          "133000.435000",
          "133000.437000",
          "133000.440000",
          "133000.443000",
          "133100.367000",
          "133100.370000",
          "133100.373000",
          "133100.376000",
          "133100.378000",
          "133100.381000",
          "133100.383000",
          "133100.386000",
          "133100.388000",
          "133100.391000",
          "133100.394000",
          "133100.397000",
          "133100.399000",
          "133100.402000",
          "133100.405000",
          "133100.407000",
          "133100.410000",
          "133100.413000",
          "133100.415000",
          "133100.418000",
          "133100.420000",
          "133100.427000",
          "133100.430000",
          "133100.432000",
          "133100.435000",
          "133100.437000",
          "133200.367000",
          "133200.370000",
          "133200.373000",
          "133200.375000",
          "133200.378000",
          "133200.380000",
          "133200.383000",
          "133200.386000",
          "133200.388000",
          "133200.391000",
          "133200.394000",
          "133200.396000",
          "133200.399000",
          "133200.402000",
          "133200.404000",
          "133200.418000",
          "133200.420000",
          "133200.423000",
          "133200.426000",
          "133200.429000",
          "133200.431000",
          "133200.434000",
          "133200.436000",
          "133200.439000",
          "133200.442000",
          "133253.359000",
          "133253.362000",
          "133253.365000",
          "133253.368000",
          "133253.370000",
          "133253.373000",
          "133253.377000",
          "133253.381000",
          "133253.385000",
          "133253.390000",
          "133253.394000",
          "133253.397000",
          "133253.401000",
          "133253.405000",
          "133253.409000",
          "133253.414000",
          "133253.418000",
          "133253.422000",
          "133253.426000",
          "133253.431000",
          "133253.435000",
          "133253.439000",
          "133253.444000"
        ],
        "InstanceNumber": [
          1,
          2,
          3,
          4,
          5,
          6,
          7,
          8,
          9,
          10,
          11,
          12,
          13,
          14,
          15,
          16,
          17,
          18,
          19,
          20,
          21,
          22,
          23,
          24,
          25,
          26,
          27,
          28,
          29,
          30,
          31,
          32,
          33,
          34,
          35,
          36,
          37,
          38,
          39,
          40,
          41,
          42,
          43,
          44,
          45,
          46,
          47,
          48,
          49,
          50,
          51,
          52,
          53,
          54,
          55,
          56,
          57,
          58,
          59,
          60,
          61,
          62,
          63,
          64,
          65,
          66,
          67,
          68,
          69,
          70,
          71,
          72,
          73,
          74,
          75,
          76,
          77,
          78,
          79,
          80,
          81,
          82,
          83,
          84,
          85,
          86,
          87,
          88,
          89,
          90,
          91,
          92,
          93,
          94,
          95,
          96,
          97,
          98,
          99,
          100,
          101,
          102,
          103,
          104,
          105,
          106,
          107,
          108,
          109,
          110,
          111,
          112,
          113,
          114,
          115,
          116,
          117,
          118,
          119,
          120,
          121,
          122,
          123,
          124,
          125,
          126,
          127
        ],
        "LargestImagePixelValue": [
          1971,
          2278,
          2105,
          1974,
          1930,
          2160,
          2143,
          2273,
          2296,
          2075,
          1933,
          1904,
          1798,
          2151,
          1946,
          2134,
          2239,
          1986,
          2292,
          2024,
          2114,
          2258,
          2099,
          1933,
          2089,
          2033,
          2181,
          1867,
          1961,
          2043,
          2412,
          2031,
          1913,
          1940,
          2120,
          2532,
          2469,
          2315,
          1887,
          1831,
          1850,
          1962,
          2199,
          2030,
          1861,
          2139,
          2376,
          1916,
          2027,
          2051,
          1927,
          1997,
          1981,
          2237,
          1887,
          2255,
          2095,
          2384,
          1872,
          1745,
          1879,
          2101,
          2084,
          2218,
          2284,
          1920,
          1969,
          2197,
          2038,
          1798,
          1957,
          2223,
          2478,
          1826,
          1694,
          1744,
          2188,
          2306,
          2587,
          2124,
          1721,
          1750,
          2096,
          1895,
          2165,
          2391,
          1908,
          1931,
          2509,
          2008,
          1794,
          2140,
          2106,
          2151,
          2159,
          2192,
          2286,
          1989,
          2287,
          1996,
          2194,
          1970,
          1961,
          2438,
          1927,
          1868,
          2249,
          1836,
          2066,
          2483,
          1861,
          1799,
          2262,
          1835,
          2454,
          2003,
          2228,
          1733,
          1855,
          2026,
          1699,
          2233,
          1974,
          2234,
          1750,
          2326,
          2243
        ],
        "WindowCenter": [
          741.0,
          741.0,
          740.0,
          738.0,
          740.0,
          741.0,
          739.0,
          740.0,
          740.0,
          740.0,
          739.0,
          738.0,
          741.0,
          744.0,
          741.0,
          742.0,
          741.0,
          742.0,
          741.0,
          740.0,
          740.0,
          742.0,
          743.0,
          741.0,
          741.0,
          742.0,
          741.0,
          742.0,
          743.0,
          741.0,
          742.0,
          741.0,
          742.0,
          743.0,
          741.0,
          740.0,
          734.0,
          734.0,
          734.0,
          739.0,
          739.0,
          739.0,
          739.0,
          739.0,
          738.0,
          740.0,
          740.0,
          740.0,
          740.0,
          740.0,
          739.0,
          739.0,
          739.0,
          742.0,
          737.0,
          738.0,
          739.0,
          738.0,
          739.0,
          738.0,
          737.0,
          742.0,
          738.0,
          743.0,
          740.0,
          740.0,
          741.0,
          740.0,
          741.0,
          738.0,
          742.0,
          740.0,
          736.0,
          738.0,
          736.0,
          739.0,
          743.0,
          740.0,
          739.0,
          740.0,
          737.0,
          740.0,
          737.0,
          739.0,
          742.0,
          742.0,
          740.0,
          740.0,
          741.0,
          740.0,
          739.0,
          741.0,
          743.0,
          741.0,
          741.0,
          741.0,
          740.0,
          739.0,
          743.0,
          740.0,
          741.0,
          744.0,
          741.0,
          741.0,
          739.0,
          741.0,
          742.0,
          742.0,
          741.0,
          741.0,
          737.0,
          740.0,
          743.0,
          743.0,
          743.0,
          741.0,
          739.0,
          737.0,
          740.0,
          742.0,
          741.0,
          744.0,
          742.0,
          744.0,
          741.0,
          742.0,
          741.0
        ],
        "WindowWidth": [
          1576.0,
          1578.0,
          1574.0,
          1569.0,
          1575.0,
          1575.0,
          1572.0,
          1574.0,
          1574.0,
          1573.0,
          1571.0,
          1571.0,
          1577.0,
          1585.0,
          1579.0,
          1580.0,
          1577.0,
          1580.0,
          1577.0,
          1574.0,
          1575.0,
          1581.0,
          1581.0,
          1577.0,
          1577.0,
          1579.0,
          1580.0,
          1578.0,
          1583.0,
          1579.0,
          1581.0,
          1577.0,
          1578.0,
          1582.0,
          1577.0,
          1573.0,
          1562.0,
          1559.0,
          1559.0,
          1571.0,
          1573.0,
          1571.0,
          1571.0,
          1572.0,
          1570.0,
          1572.0,
          1573.0,
          1575.0,
          1573.0,
          1575.0,
          1573.0,
          1572.0,
          1572.0,
          1578.0,
          1566.0,
          1568.0,
          1571.0,
          1570.0,
          1570.0,
          1569.0,
          1567.0,
          1578.0,
          1569.0,
          1582.0,
          1576.0,
          1576.0,
          1577.0,
          1576.0,
          1575.0,
          1570.0,
          1578.0,
          1575.0,
          1565.0,
          1568.0,
          1565.0,
          1571.0,
          1581.0,
          1572.0,
          1573.0,
          1573.0,
          1567.0,
          1575.0,
          1567.0,
          1572.0,
          1580.0,
          1578.0,
          1575.0,
          1575.0,
          1577.0,
          1574.0,
          1573.0,
          1578.0,
          1580.0,
          1577.0,
          1579.0,
          1577.0,
          1574.0,
          1572.0,
          1583.0,
          1574.0,
          1577.0,
          1586.0,
          1575.0,
          1578.0,
          1573.0,
          1576.0,
          1579.0,
          1579.0,
          1578.0,
          1578.0,
          1569.0,
          1573.0,
          1580.0,
          1582.0,
          1582.0,
          1576.0,
          1570.0,
          1568.0,
          1574.0,
          1580.0,
          1576.0,
          1584.0,
          1580.0,
          1585.0,
          1577.0,
          1579.0,
          1578.0
        ]
      },
      "slices": {}
    }
  },
  "dummy_trs": 0,
  "dvars_nstd": 41.49024280666667,
  "dvars_std": 1.2896880983333339,
  "dvars_vstd": 1.0312916223809525,
  "efc": 0.5408206618770023,
  "fber": 1714.6070556640625,
  "fd_mean": 0.6720710152401985,
  "fd_num": 114,
  "fd_perc": 89.76377952755905,
  "fwhm_avg": 1.5928105123288618,
  "fwhm_x": 1.4626366666666666,
  "fwhm_y": 1.8046766666666667,
  "fwhm_z": 1.511118203653252,
  "gcor": 0.0325906,
  "gsr_x": -0.01739712990820408,
  "gsr_y": 0.04535956680774689,
  "provenance": {
    "md5sum": "81fa655d2280f6175c12a8ee832ce2ae",
    "settings": {
      "fd_thres": 0.2,
      "testing": false
    },
    "software": "mriqc",
    "version": "22.0.1",
    "webapi_port": null,
    "webapi_url": "https://mriqc.nimh.nih.gov/api/v1"
  },
  "size_t": 127,
  "size_x": 64,
  "size_y": 64,
  "size_z": 34,
  "snr": 7.716825054686497,
  "spacing_tr": 2.3399999141693115,
  "spacing_x": 3.0,
  "spacing_y": 3.0,
  "spacing_z": 3.299999952316284,
  "summary_bg_k": 51.89746670336314,
  "summary_bg_mad": 7.156183898148399,
  "summary_bg_mean": 35.20397186279297,
  "summary_bg_median": 20.56692886352539,
  "summary_bg_n": 78192.0,
  "summary_bg_p05": 13.086613655090332,
  "summary_bg_p95": 95.1803115844726,
  "summary_bg_stdv": 56.5172233581543,
  "summary_fg_k": 3.8507190700645486,
  "summary_fg_mad": 104.7044381207711,
  "summary_fg_mean": 868.4014282226562,
  "summary_fg_median": 870.153564453125,
  "summary_fg_n": 29098.0,
  "summary_fg_p05": 701.1291259765625,
  "summary_fg_p95": 1031.4165100097655,
  "summary_fg_stdv": 112.75862884521484,
  "tsnr": 45.503540391568094
}