{
  "aor": 0.014633769230769231,
  "aqi": 0.01991370446153846,
  "bids_meta": {
    "AcquisitionMatrixPE": 64,
    "AcquisitionNumber": 1,
    "AcquisitionTime": "14:34:9.995000",
    "BandwidthPerPixelPhaseEncode": 24.038,
    "BaseResolution": 64,
    "BodyPartExamined": "HEAD",
    "ConsistencyInfo": "N4_VD13A_LATEST_20120616",
    "ConversionSoftware": "dcm2niix",
    "ConversionSoftwareVersion": "v1.0.20181125  GCC6.3.0",
    "DerivedVendorReportedEchoSpacing": 0.000650012,
    "DeviceSerialNumber": "45250",
    "DwellTime": 4.6e-06,
    "EchoTime": 0.033,
    "EchoTrainLength": 64,
    "EffectiveEchoSpacing": 0.000650012,
    "FlipAngle": 90,
    "ImageOrientationPatientDICOM": [
      0.999316,
      0.0369926,
      -1.55225e-05,
      -0.0366433,
      0.98982,
      -0.137529
    ],
    "ImageType": [
      "ORIGINAL",
      "PRIMARY",
      "M",
      "ND",
      "NORM",
      "MOSAIC"
    ],
    "ImagingFrequency": 123.22,
    "InPlanePhaseEncodingDirectionDICOM": "COL",
    "InstitutionAddress": "Kopernikusstr._26_Graz_Graz_AT_8010",
    "InstitutionName": "KFU",
    "InstitutionalDepartmentName": "Department",
    "MRAcquisitionType": "2D",
    "MagneticFieldStrength": 3,
    "Manufacturer": "Siemens",
    "ManufacturersModelName": "Skyra",
    "Modality": "MR",
    "PartialFourier": 1,
    "PatientPosition": "HFS",
    "PercentPhaseFOV": 100,
    "PhaseEncodingDirection": "j-",
    "PhaseEncodingSteps": 64,
    "PhaseResolution": 1,
    "PixelBandwidth": 1700,
    "ProcedureStepDescription": "KFU_Entw-Psy",
    "ProtocolName": "fMRI_2",
    "PulseSequenceDetails": "%SiemensSeq%_ep2d_pace",
    "ReceiveCoilActiveElements": "HE1-4",
    "ReceiveCoilName": "HeadNeck_20",
    "ReconMatrixPE": 64,
    "RepetitionTime": 2.34,
    "SAR": 0.155833,
    "ScanOptions": "FS",
    "ScanningSequence": "EP",
    "SequenceName": "_epfid2d1_64",
    "SequenceVariant": "SK",
    "SeriesDescription": "fMRI_2",
    "SeriesNumber": 5,
    "ShimSetting": [
      -1616,
      -3666,
      -4307,
      437,
      665,
      99,
      -185,
      -381
    ],
    "SliceThickness": 3,
    "SliceTiming": [
      2.25,
      2.1825,
      2.115,
      2.0475,
      1.9775,
      1.91,
      1.8425,
      1.7725,
      1.705,
      1.6375,
      1.57,
      1.5,
      1.4325,
      1.365,
      1.295,
      1.2275,
      1.16,
      1.0925,
      1.0225,
      0.955,
      0.8875,
      0.8175,
      0.75,
      0.6825,
      0.6125,
      0.545,
      0.4775,
      0.41,
      0.34,
      0.2725,
      0.205,
      0.135,
      0.0675,
      0
    ],
    "SoftwareVersions": "syngo_MR_D13",
    "SpacingBetweenSlices": 3.3,
    "StationName": "FBMTMR1",
    "TaskName": "read",
    "TotalReadoutTime": 0.0409508,
    "TxRefAmp": 346.015,
    "dataset": "ds003126",
    "dcmmeta_affine": [
      [
        -2.9979465007781982,
        -0.10992977023124695,
        0.01673826575279236,
        102.05625915527344
      ],
      [
        -0.11097791790962219,
        2.969459056854248,
        -0.4535374045372009,
        -105.63948059082031
      ],
      [
        -4.656748933484778e-05,
        0.412587434053421,
        3.2686424255371094,
        -29.558385848999023
      ],
      [
        0.0,
        0.0,
        0.0,
        1.0
      ]
    ],
    "dcmmeta_reorient_transform": [
      [
        0.0,
        -1.0,
        0.0,
        63.0
      ],
      [
        1.0,
        0.0,
        0.0,
        0.0
      ],
      [
        0.0,
        0.0,
        1.0,
        0.0
      ],
      [
        0.0,
        0.0,
        0.0,
        1.0
      ]
    ],
    "dcmmeta_shape": [
      64,
      64,
      34,
      130
    ],
    "dcmmeta_slice_dim": 2,
    "dcmmeta_version": 0.6,
    "global": {
      "const": {
        "AcquisitionMatrix": [
          64,
          0,
          0,
          64
        ],
        "AngioFlag": "N",
        "BitsAllocated": 16,
        "BitsStored": 12,
        "BodyPartExamined": "HEAD",
        "Columns": 384,
        "EchoNumbers": 1,
        "EchoTime": 33.0,
        "EchoTrainLength": 64,
        "FlipAngle": 90.0,
        "HighBit": 11,
        "ImageOrientationPatient": [
          0.99931553797824,
          0.03699263865023,
          -1.55224962e-05,
          -0.0366432575904,
          0.9898196833902,
          -0.1375291461708
        ],
        "ImagePositionPatient": [
          -557.2133751107,
          -574.30635095598,
          62.456064387837
        ],
        "ImageType": [
          "ORIGINAL",
          "PRIMARY",
          "M",
          "ND",
          "NORM",
          "MOSAIC"
        ],
        "ImagedNucleus": "1H",
        "ImagingFrequency": 123.22022,
        "InPlanePhaseEncodingDirection": "COL",
        "MRAcquisitionType": "2D",
        "MagneticFieldStrength": 3.0,
        "Manufacturer": "SIEMENS",
        "ManufacturerModelName": "Skyra",
        "Modality": "MR",
        "NumberOfAverages": 1.0,
        "NumberOfPhaseEncodingSteps": 64,
        "PercentPhaseFieldOfView": 100.0,
        "PercentSampling": 100.0,
        "PerformedProcedureStepStartTime": "142553.496000",
        "PhotometricInterpretation": "MONOCHROME2",
        "PixelBandwidth": 1700.0,
        "PixelRepresentation": 0,
        "PixelSpacing": [
          3.0,
          3.0
        ],
        "ProtocolName": "fMRI_2",
        "RepetitionTime": 2340.0,
        "Rows": 384,
        "SAR": 0.1558328154811,
        "SamplesPerPixel": 1,
        "ScanOptions": "FS",
        "ScanningSequence": "EP",
        "SequenceName": "*epfid2d1_64",
        "SequenceVariant": "SK",
        "SeriesDescription": "fMRI_2",
        "SeriesNumber": 5,
        "SeriesTime": "143507.427000",
        "SliceLocation": -14.241239370446,
        "SliceThickness": 3.0,
        "SmallestImagePixelValue": 0,
        "SoftwareVersions": "syngo MR D13",
        "SpacingBetweenSlices": 3.2999999536342,
        "SpecificCharacterSet": "ISO_IR 100",
        "StudyID": "1",
        "StudyTime": "142553.442000",
        "TransmitCoilName": "Body",
        "VariableFlipAngleFlag": "N",
        "WindowCenterWidthExplanation": "Algo1",
        "dBdt": 0.0
      },
      "slices": {}
    },
    "modality": "bold",
    "run_id": 2,
    "session_id": "2",
    "subject_id": "047EPKL013053",
    "task_id": "read",
    "time": {
      "samples": {
        "AcquisitionNumber": [
          1,
          2,
          3,
          4,
          5,
          6,
          7,
          8,
          9,
          10,
          11,
          12,
          13,
          14,
          15,
          16,
          17,
          18,
          19,
          20,
          21,
          22,
          23,
          24,
          25,
          26,
          27,
          28,
          29,
          30,
          31,
          32,
          33,
          34,
          35,
          36,
          37,
          38,
          39,
          40,
          41,
          42,
          43,
          44,
          45,
          46,
          47,
          48,
          49,
          50,
          51,
          52,
          53,
          54,
          55,
          56,
          57,
          58,
          59,
          60,
          61,
          62,
          63,
          64,
          65,
          66,
          67,
          68,
          69,
          70,
          71,
          72,
          73,
          74,
          75,
          76,
          77,
          78,
          79,
          80,
          81,
          82,
          83,
          84,
          85,
          86,
          87,
          88,
          89,
          90,
          91,
          92,
          93,
          94,
          95,
          96,
          97,
          98,
          99,
          100,
          101,
          102,
          103,
          104,
          105,
          106,
          107,
          108,
          109,
          110,
          111,
          112,
          113,
          114,
          115,
          116,
          117,
          118,
          119,
          120,
          121,
          122,
          123,
          124,
          125,
          126,
          127,
          128,
          129,
          130
        ],
        "AcquisitionTime": [
          "143409.995000",
          "143412.335000",
          "143414.675000",
          "143417.015000",
          "143419.355000",
          "143421.695000",
          "143424.035000",
          "143426.375000",
          "143428.715000",
          "143431.055000",
          "143433.395000",
          "143435.735000",
          "143438.075000",
          "143440.415000",
          "143442.755000",
          "143445.095000",
          "143447.435000",
          "143449.775000",
          "143452.115000",
          "143454.455000",
          "143456.795000",
          "143459.135000",
          "143501.475000",
          "143503.815000",
          "143506.155000",
          "143508.495000",
          "143510.835000",
          "143513.175000",
          "143515.515000",
          "143517.855000",
          "143520.195000",
          "143522.535000",
          "143524.875000",
          "143527.215000",
          "143529.555000",
          "143531.895000",
          "143534.235000",
          "143536.575000",
          "143538.915000",
          "143541.255000",
          "143543.595000",
          "143545.935000",
          "143548.275000",
          "143550.615000",
          "143552.955000",
          "143555.295000",
          "143557.635000",
          "143559.975000",
          "143602.315000",
          "143604.655000",
          "143606.995000",
          "143609.335000",
          "143611.675000",
          "143614.015000",
          "143616.355000",
          "143618.695000",
          "143621.035000",
          "143623.375000",
          "143625.715000",
          "143628.055000",
          "143630.395000",
          "143632.735000",
          "143635.075000",
          "143637.415000",
          "143639.755000",
          "143642.095000",
          "143644.435000",
          "143646.775000",
          "143649.115000",
          "143651.455000",
          "143653.795000",
          "143656.135000",
          "143658.475000",
          "143700.815000",
          "143703.155000",
          "143705.495000",
          "143707.835000",
          "143710.175000",
          "143712.515000",
          "143714.855000",
          "143717.195000",
          "143719.535000",
          "143721.875000",
          "143724.215000",
          "143726.555000",
          "143728.895000",
          "143731.235000",
          "143733.575000",
          "143735.915000",
          "143738.255000",
          "143740.595000",
          "143742.935000",
          "143745.275000",
          "143747.615000",
          "143749.955000",
          "143752.295000",
          "143754.635000",
          "143756.975000",
          "143759.315000",
          "143801.655000",
          "143803.995000",
          "143806.335000",
          "143808.675000",
          "143811.015000",
          "143813.355000",
          "143815.695000",
          "143818.035000",
          "143820.375000",
          "143822.715000",
          "143825.055000",
          "143827.395000",
          "143829.735000",
          "143832.075000",
          "143834.415000",
          "143836.755000",
          "143839.095000",
          "143841.435000",
          "143843.775000",
          "143846.115000",
          "143848.455000",
          "143850.795000",
          "143853.135000",
          "143855.475000",
          "143857.815000",
          "143900.155000",
          "143902.495000",
          "143904.835000",
          "143907.175000",
          "143909.515000",
          "143911.855000"
        ],
        "ContentTime": [
          "143507.431000",
          "143507.435000",
          "143507.438000",
          "143507.441000",
          "143507.443000",
          "143507.446000",
          "143507.449000",
          "143507.452000",
          "143507.454000",
          "143507.457000",
          "143507.460000",
          "143507.462000",
          "143507.465000",
          "143507.468000",
          "143507.470000",
          "143507.473000",
          "143507.475000",
          "143507.478000",
          "143507.481000",
          "143507.484000",
          "143507.486000",
          "143507.489000",
          "143507.492000",
          "143507.494000",
          "143507.497000",
          "143607.425000",
          "143607.428000",
          "143607.439000",
          "143607.441000",
          "143607.444000",
          "143607.446000",
          "143607.449000",
          "143607.452000",
          "143607.455000",
          "143607.457000",
          "143607.460000",
          "143607.463000",
          "143607.465000",
          "143607.468000",
          "143607.470000",
          "143607.473000",
          "143607.476000",
          "143607.478000",
          "143607.481000",
          "143607.484000",
          "143607.486000",
          "143607.489000",
          "143607.491000",
          "143607.494000",
          "143607.502000",
          "143707.425000",
          "143707.428000",
          "143707.431000",
          "143707.433000",
          "143707.443000",
          "143707.446000",
          "143707.448000",
          "143707.451000",
          "143707.454000",
          "143707.456000",
          "143707.459000",
          "143707.462000",
          "143707.464000",
          "143707.467000",
          "143707.470000",
          "143707.477000",
          "143707.480000",
          "143707.482000",
          "143707.485000",
          "143707.488000",
          "143707.490000",
          "143707.493000",
          "143707.496000",
          "143707.498000",
          "143707.501000",
          "143707.503000",
          "143807.425000",
          "143807.428000",
          "143807.431000",
          "143807.434000",
          "143807.437000",
          "143807.440000",
          "143807.444000",
          "143807.446000",
          "143807.449000",
          "143807.452000",
          "143807.455000",
          "143807.458000",
          "143807.461000",
          "143807.464000",
          "143807.467000",
          "143807.470000",
          "143807.473000",
          "143807.475000",
          "143807.478000",
          "143807.481000",
          "143807.484000",
          "143807.487000",
          "143807.490000",
          "143807.493000",
          "143807.496000",
          "143807.499000",
          "143907.425000",
          "143907.428000",
          "143907.431000",
          "143907.434000",
          "143907.446000",
          "143907.448000",
          "143907.451000",
          "143907.454000",
          "143907.457000",
          "143907.459000",
          "143907.462000",
          "143907.465000",
          "143907.468000",
          "143907.470000",
          "143907.473000",
          "143907.476000",
          "143907.479000",
          "143907.481000",
          "143907.484000",
          "143907.487000",
          "143907.490000",
          "143907.492000",
          "143907.495000",
          "143907.498000",
          "143907.500000",
          "143912.490000",
          "143912.508000",
          "143912.511000"
        ],
        "InstanceCreationTime": [
          "143507.431000",
          "143507.435000",
          "143507.438000",
          "143507.441000",
          "143507.443000",
          "143507.446000",
          "143507.449000",
          "143507.452000",
          "143507.454000",
          "143507.457000",
          "143507.460000",
          "143507.462000",
          "143507.465000",
          "143507.468000",
          "143507.470000",
          "143507.473000",
          "143507.475000",
          "143507.478000",
          "143507.481000",
          "143507.484000",
          "143507.486000",
          "143507.489000",
          "143507.492000",
          "143507.494000",
          "143507.497000",
          "143607.425000",
          "143607.428000",
          "143607.439000",
          "143607.441000",
          "143607.444000",
          "143607.446000",
          "143607.449000",
          "143607.452000",
          "143607.455000",
          "143607.457000",
          "143607.460000",
          "143607.463000",
          "143607.465000",
          "143607.468000",
          "143607.470000",
          "143607.473000",
          "143607.476000",
          "143607.478000",
          "143607.481000",
          "143607.484000",
          "143607.486000",
          "143607.489000",
          "143607.491000",
          "143607.494000",
          "143607.502000",
          "143707.425000",
          "143707.428000",
          "143707.431000",
          "143707.433000",
          "143707.443000",
          "143707.446000",
          "143707.448000",
          "143707.451000",
          "143707.454000",
          "143707.456000",
          "143707.459000",
          "143707.462000",
          "143707.464000",
          "143707.467000",
          "143707.470000",
          "143707.477000",
          "143707.480000",
          "143707.482000",
          "143707.485000",
          "143707.488000",
          "143707.490000",
          "143707.493000",
          "143707.496000",
          "143707.498000",
          "143707.501000",
          "143707.503000",
          "143807.425000",
          "143807.428000",
          "143807.431000",
          "143807.434000",
          "143807.437000",
          "143807.440000",
          "143807.444000",
          "143807.446000",
          "143807.449000",
          "143807.452000",
          "143807.455000",
          "143807.458000",
          "143807.461000",
          "143807.464000",
          "143807.467000",
          "143807.470000",
          "143807.473000",
          "143807.475000",
          "143807.478000",
          "143807.481000",
          "143807.484000",
          "143807.487000",
          "143807.490000",
          "143807.493000",
          "143807.496000",
          "143807.499000",
          "143907.425000",
          "143907.428000",
          "143907.431000",
          "143907.434000",
          "143907.446000",
          "143907.448000",
          "143907.451000",
          "143907.454000",
          "143907.457000",
          "143907.459000",
          "143907.462000",
          "143907.465000",
          "143907.468000",
          "143907.470000",
          "143907.473000",
          "143907.476000",
          "143907.479000",
          "143907.481000",
          "143907.484000",
          "143907.487000",
          "143907.490000",
          "143907.492000",
          "143907.495000",
          "143907.498000",
          "143907.500000",
          "143912.490000",
          "143912.508000",
          "143912.511000"
        ],
        "InstanceNumber": [
          1,
          2,
          3,
          4,
          5,
          6,
          7,
          8,
          9,
          10,
          11,
          12,
          13,
          14,
          15,
          16,
          17,
          18,
          19,
          20,
          21,
          22,
          23,
          24,
          25,
          26,
          27,
          28,
          29,
          30,
          31,
          32,
          33,
          34,
          35,
          36,
          37,
          38,
          39,
          40,
          41,
          42,
          43,
          44,
          45,
          46,
          47,
          48,
          49,
          50,
          51,
          52,
          53,
          54,
          55,
          56,
          57,
          58,
          59,
          60,
          61,
          62,
          63,
          64,
          65,
          66,
          67,
          68,
          69,
          70,
          71,
          72,
          73,
          74,
          75,
          76,
          77,
          78,
          79,
          80,
          81,
          82,
          83,
          84,
          85,
          86,
          87,
          88,
          89,
          90,
          91,
          92,
          93,
          94,
          95,
          96,
          97,
          98,
          99,
          100,
          101,
          102,
          103,
          104,
          105,
          106,
          107,
          108,
          109,
          110,
          111,
          112,
          113,
          114,
          115,
          116,
          117,
          118,
          119,
          120,
          121,
          122,
          123,
          124,
          125,
          126,
          127,
          128,
          129,
          130
        ],
        "LargestImagePixelValue": [
          1816,
          2185,
          2260,
          2081,
          1770,
          1687,
          1777,
          2108,
          2052,
          1802,
          1963,
          1703,
          1786,
          2132,
          1858,
          1722,
          1667,
          1770,
          1838,
          1841,
          1779,
          1919,
          1916,
          1886,
          2110,
          1776,
          1836,
          1675,
          1700,
          1730,
          1779,
          1899,
          1933,
          1910,
          1735,
          2168,
          2210,
          1731,
          1833,
          1826,
          1769,
          1794,
          1869,
          1719,
          1740,
          1880,
          1924,
          1804,
          1813,
          1690,
          1753,
          1971,
          1791,
          1849,
          1792,
          1919,
          1898,
          1889,
          1824,
          2214,
          1981,
          1797,
          1838,
          1920,
          1719,
          1807,
          1797,
          1814,
          1843,
          1851,
          1764,
          1800,
          1920,
          1814,
          1840,
          2042,
          1742,
          1918,
          1939,
          1858,
          1833,
          2192,
          1763,
          1772,
          1879,
          2017,
          1836,
          1850,
          1770,
          1746,
          1806,
          1923,
          1797,
          1821,
          1975,
          1839,
          1951,
          2265,
          1735,
          1859,
          1919,
          1840,
          1706,
          1785,
          1856,
          1936,
          1745,
          1788,
          2009,
          2086,
          1689,
          1789,
          1863,
          2071,
          1727,
          1772,
          1905,
          1860,
          1843,
          1904,
          1786,
          1872,
          1943,
          1924,
          1675,
          1709,
          1698,
          1684,
          1768,
          1810
        ],
        "WindowCenter": [
          811.0,
          811.0,
          809.0,
          807.0,
          807.0,
          809.0,
          809.0,
          807.0,
          806.0,
          807.0,
          808.0,
          807.0,
          808.0,
          809.0,
          807.0,
          808.0,
          808.0,
          808.0,
          808.0,
          810.0,
          808.0,
          809.0,
          810.0,
          811.0,
          809.0,
          808.0,
          808.0,
          808.0,
          808.0,
          809.0,
          810.0,
          809.0,
          808.0,
          807.0,
          809.0,
          811.0,
          806.0,
          805.0,
          804.0,
          808.0,
          807.0,
          808.0,
          810.0,
          811.0,
          811.0,
          810.0,
          808.0,
          809.0,
          806.0,
          808.0,
          809.0,
          809.0,
          808.0,
          810.0,
          810.0,
          809.0,
          809.0,
          808.0,
          809.0,
          810.0,
          809.0,
          812.0,
          810.0,
          810.0,
          807.0,
          809.0,
          809.0,
          809.0,
          811.0,
          811.0,
          810.0,
          810.0,
          812.0,
          809.0,
          809.0,
          812.0,
          810.0,
          812.0,
          811.0,
          811.0,
          810.0,
          809.0,
          807.0,
          809.0,
          810.0,
          811.0,
          808.0,
          810.0,
          810.0,
          810.0,
          811.0,
          812.0,
          812.0,
          816.0,
          813.0,
          812.0,
          811.0,
          812.0,
          808.0,
          810.0,
          810.0,
          810.0,
          809.0,
          812.0,
          811.0,
          812.0,
          810.0,
          810.0,
          813.0,
          813.0,
          809.0,
          811.0,
          808.0,
          810.0,
          809.0,
          810.0,
          813.0,
          813.0,
          813.0,
          813.0,
          811.0,
          812.0,
          809.0,
          811.0,
          810.0,
          809.0,
          810.0,
          811.0,
          813.0,
          813.0
        ],
        "WindowWidth": [
          1733.0,
          1732.0,
          1728.0,
          1725.0,
          1724.0,
          1727.0,
          1728.0,
          1724.0,
          1719.0,
          1722.0,
          1725.0,
          1723.0,
          1725.0,
          1730.0,
          1723.0,
          1726.0,
          1723.0,
          1726.0,
          1726.0,
          1730.0,
          1727.0,
          1727.0,
          1730.0,
          1732.0,
          1730.0,
          1726.0,
          1724.0,
          1726.0,
          1725.0,
          1727.0,
          1731.0,
          1728.0,
          1725.0,
          1724.0,
          1728.0,
          1733.0,
          1723.0,
          1715.0,
          1715.0,
          1727.0,
          1723.0,
          1727.0,
          1733.0,
          1733.0,
          1732.0,
          1731.0,
          1725.0,
          1727.0,
          1723.0,
          1725.0,
          1730.0,
          1728.0,
          1724.0,
          1730.0,
          1730.0,
          1728.0,
          1728.0,
          1727.0,
          1729.0,
          1730.0,
          1728.0,
          1737.0,
          1730.0,
          1730.0,
          1724.0,
          1729.0,
          1729.0,
          1729.0,
          1734.0,
          1734.0,
          1730.0,
          1730.0,
          1737.0,
          1727.0,
          1728.0,
          1735.0,
          1729.0,
          1737.0,
          1734.0,
          1734.0,
          1730.0,
          1727.0,
          1725.0,
          1730.0,
          1732.0,
          1733.0,
          1724.0,
          1731.0,
          1730.0,
          1731.0,
          1732.0,
          1734.0,
          1734.0,
          1746.0,
          1738.0,
          1735.0,
          1732.0,
          1736.0,
          1727.0,
          1731.0,
          1731.0,
          1730.0,
          1728.0,
          1736.0,
          1735.0,
          1737.0,
          1730.0,
          1733.0,
          1738.0,
          1738.0,
          1729.0,
          1733.0,
          1725.0,
          1730.0,
          1728.0,
          1731.0,
          1738.0,
          1739.0,
          1739.0,
          1738.0,
          1734.0,
          1736.0,
          1730.0,
          1733.0,
          1730.0,
          1728.0,
          1732.0,
          1735.0,
          1739.0,
          1739.0
        ]
      },
      "slices": {}
    }
  },
  "dummy_trs": 0,
  "dvars_nstd": 39.710421554651155,
  "dvars_std": 1.3829641003100777,
  "dvars_vstd": 1.167368775891473,
  "efc": 0.5646120439532755,
  "fber": 1708.4630126953125,
  "fd_mean": 0.7015353544605272,
  "fd_num": 102,
  "fd_perc": 78.46153846153847,
  "fwhm_avg": 1.5926508153207495,
  "fwhm_x": 1.5162866666666668,
  "fwhm_y": 1.7585233333333334,
  "fwhm_z": 1.5031424459622478,
  "gcor": 0.0257254,
  "gsr_x": 0.0002954219817183912,
  "gsr_y": 0.031195130199193954,
  "provenance": {
    "md5sum": "0903b1b160e6040e2979cbcfa9abfaeb",
    "settings": {
      "fd_thres": 0.2,
      "testing": false
    },
    "software": "mriqc",
    "version": "22.0.1",
    "webapi_port": null,
    "webapi_url": "https://mriqc.nimh.nih.gov/api/v1"
  },
  "size_t": 130,
  "size_x": 64,
  "size_y": 64,
  "size_z": 34,
  "snr": 7.500485476159265,
  "spacing_tr": 2.3399999141693115,
  "spacing_x": 3.0,
  "spacing_y": 3.0,
  "spacing_z": 3.299999952316284,
  "summary_bg_k": 60.694425939445985,
  "summary_bg_mad": 10.560690344823426,
  "summary_bg_mean": 36.358394622802734,
  "summary_bg_median": 22.63846206665039,
  "summary_bg_n": 73771.0,
  "summary_bg_p05": 12.915384292602539,
  "summary_bg_p95": 98.73846054077148,
  "summary_bg_stdv": 50.90198516845703,
  "summary_fg_k": 2.1821568201186707,
  "summary_fg_mad": 130.49179892472486,
  "summary_fg_mean": 956.4365234375,
  "summary_fg_median": 956.9769287109375,
  "summary_fg_n": 33649.0,
  "summary_fg_p05": 770.7476928710938,
  "summary_fg_p95": 1148.935400390625,
  "summary_fg_stdv": 127.5867691040039,
  "tsnr": 46.64954372495413
}