{
  "aor": 0.01883475806451613,
  "aqi": 0.022669545483870967,
  "bids_meta": {
    "AcquisitionMatrixPE": 64,
    "AcquisitionNumber": 1,
    "AcquisitionTime": "14:39:55.972500",
    "BandwidthPerPixelPhaseEncode": 24.038,
    "BaseResolution": 64,
    "BodyPartExamined": "HEAD",
    "ConsistencyInfo": "N4_VD13A_LATEST_20120616",
    "ConversionSoftware": "dcm2niix",
    "ConversionSoftwareVersion": "v1.0.20181125  GCC6.3.0",
    "DerivedVendorReportedEchoSpacing": 0.000650012,
    "DeviceSerialNumber": "45250",
    "DwellTime": 4.6e-06,
    "EchoTime": 0.033,
    "EchoTrainLength": 64,
    "EffectiveEchoSpacing": 0.000650012,
    "FlipAngle": 90,
    "ImageOrientationPatientDICOM": [
      0.999316,
      0.0369926,
      -1.55225e-05,
      -0.0366433,
      0.98982,
      -0.137529
    ],
    "ImageType": [
      "ORIGINAL",
      "PRIMARY",
      "M",
      "ND",
      "NORM",
      "MOSAIC"
    ],
    "ImagingFrequency": 123.22,
    "InPlanePhaseEncodingDirectionDICOM": "COL",
    "InstitutionAddress": "Kopernikusstr._26_Graz_Graz_AT_8010",
    "InstitutionName": "KFU",
    "InstitutionalDepartmentName": "Department",
    "MRAcquisitionType": "2D",
    "MagneticFieldStrength": 3,
    "Manufacturer": "Siemens",
    "ManufacturersModelName": "Skyra",
    "Modality": "MR",
    "PartialFourier": 1,
    "PatientPosition": "HFS",
    "PercentPhaseFOV": 100,
    "PhaseEncodingDirection": "j-",
    "PhaseEncodingSteps": 64,
    "PhaseResolution": 1,
    "PixelBandwidth": 1700,
    "ProcedureStepDescription": "KFU_Entw-Psy",
    "ProtocolName": "fMRI_3",
    "PulseSequenceDetails": "%SiemensSeq%_ep2d_pace",
    "ReceiveCoilActiveElements": "HE1-4",
    "ReceiveCoilName": "HeadNeck_20",
    "ReconMatrixPE": 64,
    "RepetitionTime": 2.34,
    "SAR": 0.155833,
    "ScanOptions": "FS",
    "ScanningSequence": "EP",
    "SequenceName": "_epfid2d1_64",
    "SequenceVariant": "SK",
    "SeriesDescription": "fMRI_3",
    "SeriesNumber": 8,
    "ShimSetting": [
      -1616,
      -3666,
      -4307,
      437,
      665,
      99,
      -185,
      -381
    ],
    "SliceThickness": 3,
    "SliceTiming": [
      2.2525,
      2.185,
      2.115,
      2.0475,
      1.98,
      1.91,
      1.8425,
      1.775,
      1.7075,
      1.6375,
      1.57,
      1.5025,
      1.4325,
      1.365,
      1.2975,
      1.2275,
      1.16,
      1.0925,
      1.025,
      0.955,
      0.8875,
      0.82,
      0.75,
      0.6825,
      0.615,
      0.5475,
      0.4775,
      0.41,
      0.3425,
      0.2725,
      0.205,
      0.1375,
      0.07,
      0
    ],
    "SoftwareVersions": "syngo_MR_D13",
    "SpacingBetweenSlices": 3.3,
    "StationName": "FBMTMR1",
    "TaskName": "read",
    "TotalReadoutTime": 0.0409508,
    "TxRefAmp": 346.015,
    "dataset": "ds003126",
    "dcmmeta_affine": [
      [
        -2.9979465007781982,
        -0.10992977023124695,
        0.01673826575279236,
        102.05625915527344
      ],
      [
        -0.11097791790962219,
        2.969459056854248,
        -0.4535374045372009,
        -105.63948059082031
      ],
      [
        -4.656748933484778e-05,
        0.412587434053421,
        3.2686424255371094,
        -29.558385848999023
      ],
      [
        0.0,
        0.0,
        0.0,
        1.0
      ]
    ],
    "dcmmeta_reorient_transform": [
      [
        0.0,
        -1.0,
        0.0,
        63.0
      ],
      [
        1.0,
        0.0,
        0.0,
        0.0
      ],
      [
        0.0,
        0.0,
        1.0,
        0.0
      ],
      [
        0.0,
        0.0,
        0.0,
        1.0
      ]
    ],
    "dcmmeta_shape": [
      64,
      64,
      34,
      124
    ],
    "dcmmeta_slice_dim": 2,
    "dcmmeta_version": 0.6,
    "global": {
      "const": {
        "AcquisitionMatrix": [
          64,
          0,
          0,
          64
        ],
        "AngioFlag": "N",
        "BitsAllocated": 16,
        "BitsStored": 12,
        "BodyPartExamined": "HEAD",
        "Columns": 384,
        "EchoNumbers": 1,
        "EchoTime": 33.0,
        "EchoTrainLength": 64,
        "FlipAngle": 90.0,
        "HighBit": 11,
        "ImageOrientationPatient": [
          0.99931553797824,
          0.03699263865023,
          -1.55224962e-05,
          -0.0366432575904,
          0.9898196833902,
          -0.1375291461708
        ],
        "ImagePositionPatient": [
          -557.2133751107,
          -574.30635095598,
          62.456064387837
        ],
        "ImageType": [
          "ORIGINAL",
          "PRIMARY",
          "M",
          "ND",
          "NORM",
          "MOSAIC"
        ],
        "ImagedNucleus": "1H",
        "ImagingFrequency": 123.220223,
        "InPlanePhaseEncodingDirection": "COL",
        "MRAcquisitionType": "2D",
        "MagneticFieldStrength": 3.0,
        "Manufacturer": "SIEMENS",
        "ManufacturerModelName": "Skyra",
        "Modality": "MR",
        "NumberOfAverages": 1.0,
        "NumberOfPhaseEncodingSteps": 64,
        "PercentPhaseFieldOfView": 100.0,
        "PercentSampling": 100.0,
        "PerformedProcedureStepStartTime": "142553.496000",
        "PhotometricInterpretation": "MONOCHROME2",
        "PixelBandwidth": 1700.0,
        "PixelRepresentation": 0,
        "PixelSpacing": [
          3.0,
          3.0
        ],
        "ProtocolName": "fMRI_3",
        "RepetitionTime": 2340.0,
        "Rows": 384,
        "SAR": 0.1558328154811,
        "SamplesPerPixel": 1,
        "ScanOptions": "FS",
        "ScanningSequence": "EP",
        "SequenceName": "*epfid2d1_64",
        "SequenceVariant": "SK",
        "SeriesDescription": "fMRI_3",
        "SeriesNumber": 8,
        "SeriesTime": "144057.804000",
        "SliceLocation": -14.241239370446,
        "SliceThickness": 3.0,
        "SmallestImagePixelValue": 0,
        "SoftwareVersions": "syngo MR D13",
        "SpacingBetweenSlices": 3.2999999536342,
        "SpecificCharacterSet": "ISO_IR 100",
        "StudyID": "1",
        "StudyTime": "142553.442000",
        "TransmitCoilName": "Body",
        "VariableFlipAngleFlag": "N",
        "WindowCenterWidthExplanation": "Algo1",
        "dBdt": 0.0
      },
      "slices": {}
    },
    "modality": "bold",
    "run_id": 3,
    "session_id": "2",
    "subject_id": "047EPKL013053",
    "task_id": "read",
    "time": {
      "samples": {
        "AcquisitionNumber": [
          1,
          2,
          3,
          4,
          5,
          6,
          7,
          8,
          9,
          10,
          11,
          12,
          13,
          14,
          15,
          16,
          17,
          18,
          19,
          20,
          21,
          22,
          23,
          24,
          25,
          26,
          27,
          28,
          29,
          30,
          31,
          32,
          33,
          34,
          35,
          36,
          37,
          38,
          39,
          40,
          41,
          42,
          43,
          44,
          45,
          46,
          47,
          48,
          49,
          50,
          51,
          52,
          53,
          54,
          55,
          56,
          57,
          58,
          59,
          60,
          61,
          62,
          63,
          64,
          65,
          66,
          67,
          68,
          69,
          70,
          71,
          72,
          73,
          74,
          75,
          76,
          77,
          78,
          79,
          80,
          81,
          82,
          83,
          84,
          85,
          86,
          87,
          88,
          89,
          90,
          91,
          92,
          93,
          94,
          95,
          96,
          97,
          98,
          99,
          100,
          101,
          102,
          103,
          104,
          105,
          106,
          107,
          108,
          109,
          110,
          111,
          112,
          113,
          114,
          115,
          116,
          117,
          118,
          119,
          120,
          121,
          122,
          123,
          124
        ],
        "AcquisitionTime": [
          "143955.972500",
          "143958.312500",
          "144000.652500",
          "144002.992500",
          "144005.332500",
          "144007.672500",
          "144010.012500",
          "144012.352500",
          "144014.692500",
          "144017.032500",
          "144019.372500",
          "144021.712500",
          "144024.052500",
          "144026.392500",
          "144028.732500",
          "144031.072500",
          "144033.412500",
          "144035.752500",
          "144038.092500",
          "144040.432500",
          "144042.772500",
          "144045.112500",
          "144047.452500",
          "144049.792500",
          "144052.132500",
          "144054.472500",
          "144056.812500",
          "144059.152500",
          "144101.492500",
          "144103.832500",
          "144106.172500",
          "144108.512500",
          "144110.852500",
          "144113.192500",
          "144115.532500",
          "144117.872500",
          "144120.212500",
          "144122.552500",
          "144124.892500",
          "144127.232500",
          "144129.572500",
          "144131.912500",
          "144134.252500",
          "144136.592500",
          "144138.932500",
          "144141.272500",
          "144143.612500",
          "144145.952500",
          "144148.292500",
          "144150.632500",
          "144152.972500",
          "144155.312500",
          "144157.652500",
          "144159.992500",
          "144202.332500",
          "144204.672500",
          "144207.012500",
          "144209.352500",
          "144211.692500",
          "144214.032500",
          "144216.372500",
          "144218.712500",
          "144221.052500",
          "144223.392500",
          "144225.732500",
          "144228.072500",
          "144230.412500",
          "144232.752500",
          "144235.092500",
          "144237.432500",
          "144239.772500",
          "144242.112500",
          "144244.452500",
          "144246.792500",
          "144249.132500",
          "144251.472500",
          "144253.812500",
          "144256.152500",
          "144258.492500",
          "144300.832500",
          "144303.172500",
          "144305.512500",
          "144307.852500",
          "144310.192500",
          "144312.532500",
          "144314.872500",
          "144317.212500",
          "144319.552500",
          "144321.892500",
          "144324.232500",
          "144326.572500",
          "144328.912500",
          "144331.252500",
          "144333.592500",
          "144335.932500",
          "144338.272500",
          "144340.612500",
          "144342.952500",
          "144345.292500",
          "144347.632500",
          "144349.972500",
          "144352.312500",
          "144354.652500",
          "144356.992500",
          "144359.332500",
          "144401.672500",
          "144404.012500",
          "144406.352500",
          "144408.692500",
          "144411.032500",
          "144413.372500",
          "144415.712500",
          "144418.052500",
          "144420.392500",
          "144422.732500",
          "144425.072500",
          "144427.412500",
          "144429.752500",
          "144432.092500",
          "144434.432500",
          "144436.772500",
          "144439.112500",
          "144441.452500",
          "144443.792500"
        ],
        "ContentTime": [
          "144057.808000",
          "144057.812000",
          "144057.814000",
          "144057.817000",
          "144057.827000",
          "144057.829000",
          "144057.832000",
          "144057.835000",
          "144057.838000",
          "144057.841000",
          "144057.843000",
          "144057.846000",
          "144057.849000",
          "144057.852000",
          "144057.854000",
          "144057.857000",
          "144057.860000",
          "144057.863000",
          "144057.866000",
          "144057.869000",
          "144057.872000",
          "144057.876000",
          "144057.879000",
          "144057.881000",
          "144057.885000",
          "144057.887000",
          "144157.802000",
          "144157.806000",
          "144157.815000",
          "144157.818000",
          "144157.821000",
          "144157.824000",
          "144157.827000",
          "144157.830000",
          "144157.832000",
          "144157.835000",
          "144157.838000",
          "144157.841000",
          "144157.844000",
          "144157.847000",
          "144157.850000",
          "144157.856000",
          "144157.859000",
          "144157.861000",
          "144157.864000",
          "144157.867000",
          "144157.870000",
          "144157.872000",
          "144157.875000",
          "144157.878000",
          "144157.880000",
          "144157.883000",
          "144257.801000",
          "144257.804000",
          "144257.807000",
          "144257.810000",
          "144257.813000",
          "144257.816000",
          "144257.819000",
          "144257.821000",
          "144257.824000",
          "144257.827000",
          "144257.829000",
          "144257.832000",
          "144257.835000",
          "144257.838000",
          "144257.841000",
          "144257.843000",
          "144257.846000",
          "144257.849000",
          "144257.852000",
          "144257.854000",
          "144257.857000",
          "144257.860000",
          "144257.863000",
          "144257.865000",
          "144257.868000",
          "144257.871000",
          "144357.802000",
          "144357.805000",
          "144357.818000",
          "144357.820000",
          "144357.823000",
          "144357.832000",
          "144357.835000",
          "144357.838000",
          "144357.841000",
          "144357.844000",
          "144357.847000",
          "144357.849000",
          "144357.852000",
          "144357.855000",
          "144357.858000",
          "144357.860000",
          "144357.863000",
          "144357.865000",
          "144357.868000",
          "144357.871000",
          "144357.874000",
          "144357.877000",
          "144357.880000",
          "144357.882000",
          "144357.885000",
          "144445.818000",
          "144445.821000",
          "144445.824000",
          "144445.827000",
          "144445.838000",
          "144445.841000",
          "144445.844000",
          "144445.847000",
          "144445.850000",
          "144445.853000",
          "144445.856000",
          "144445.859000",
          "144445.862000",
          "144445.866000",
          "144445.869000",
          "144445.873000",
          "144445.878000",
          "144445.881000",
          "144445.885000",
          "144445.889000",
          "144445.892000"
        ],
        "InstanceCreationTime": [
          "144057.808000",
          "144057.812000",
          "144057.814000",
          "144057.817000",
          "144057.827000",
          "144057.829000",
          "144057.832000",
          "144057.835000",
          "144057.838000",
          "144057.841000",
          "144057.843000",
          "144057.846000",
          "144057.849000",
          "144057.852000",
          "144057.854000",
          "144057.857000",
          "144057.860000",
          "144057.863000",
          "144057.866000",
          "144057.869000",
          "144057.872000",
          "144057.876000",
          "144057.879000",
          "144057.881000",
          "144057.885000",
          "144057.887000",
          "144157.802000",
          "144157.806000",
          "144157.815000",
          "144157.818000",
          "144157.821000",
          "144157.824000",
          "144157.827000",
          "144157.830000",
          "144157.832000",
          "144157.835000",
          "144157.838000",
          "144157.841000",
          "144157.844000",
          "144157.847000",
          "144157.850000",
          "144157.856000",
          "144157.859000",
          "144157.861000",
          "144157.864000",
          "144157.867000",
          "144157.870000",
          "144157.872000",
          "144157.875000",
          "144157.878000",
          "144157.880000",
          "144157.883000",
          "144257.801000",
          "144257.804000",
          "144257.807000",
          "144257.810000",
          "144257.813000",
          "144257.816000",
          "144257.819000",
          "144257.821000",
          "144257.824000",
          "144257.827000",
          "144257.829000",
          "144257.832000",
          "144257.835000",
          "144257.838000",
          "144257.841000",
          "144257.843000",
          "144257.846000",
          "144257.849000",
          "144257.852000",
          "144257.854000",
          "144257.857000",
          "144257.860000",
          "144257.863000",
          "144257.865000",
          "144257.868000",
          "144257.871000",
          "144357.802000",
          "144357.805000",
          "144357.818000",
          "144357.820000",
          "144357.823000",
          "144357.832000",
          "144357.835000",
          "144357.838000",
          "144357.841000",
          "144357.844000",
          "144357.847000",
          "144357.849000",
          "144357.852000",
          "144357.855000",
          "144357.858000",
          "144357.860000",
          "144357.863000",
          "144357.865000",
          "144357.868000",
          "144357.871000",
          "144357.874000",
          "144357.877000",
          "144357.880000",
          "144357.882000",
          "144357.885000",
          "144445.818000",
          "144445.821000",
          "144445.824000",
          "144445.827000",
          "144445.838000",
          "144445.841000",
          "144445.844000",
          "144445.847000",
          "144445.850000",
          "144445.853000",
          "144445.856000",
          "144445.859000",
          "144445.862000",
          "144445.866000",
          "144445.869000",
          "144445.873000",
          "144445.878000",
          "144445.881000",
          "144445.885000",
          "144445.889000",
          "144445.892000"
        ],
        "InstanceNumber": [
          1,
          2,
          3,
          4,
          5,
          6,
          7,
          8,
          9,
          10,
          11,
          12,
          13,
          14,
          15,
          16,
          17,
          18,
          19,
          20,
          21,
          22,
          23,
          24,
          25,
          26,
          27,
          28,
          29,
          30,
          31,
          32,
          33,
          34,
          35,
          36,
          37,
          38,
          39,
          40,
          41,
          42,
          43,
          44,
          45,
          46,
          47,
          48,
          49,
          50,
          51,
          52,
          53,
          54,
          55,
          56,
          57,
          58,
          59,
          60,
          61,
          62,
          63,
          64,
          65,
          66,
          67,
          68,
          69,
          70,
          71,
          72,
          73,
          74,
          75,
          76,
          77,
          78,
          79,
          80,
          81,
          82,
          83,
          84,
          85,
          86,
          87,
          88,
          89,
          90,
          91,
          92,
          93,
          94,
          95,
          96,
          97,
          98,
          99,
          100,
          101,
          102,
          103,
          104,
          105,
          106,
          107,
          108,
          109,
          110,
          111,
          112,
          113,
          114,
          115,
          116,
          117,
          118,
          119,
          120,
          121,
          122,
          123,
          124
        ],
        "LargestImagePixelValue": [
          2054,
          1799,
          1898,
          1923,
          1747,
          1808,
          1872,
          1732,
          1957,
          1801,
          1857,
          1982,
          1671,
          1750,
          1808,
          1795,
          1836,
          1972,
          1824,
          1772,
          1758,
          1840,
          1804,
          1833,
          2105,
          1649,
          1803,
          2211,
          1726,
          1781,
          2127,
          1850,
          1821,
          1828,
          1809,
          1787,
          1816,
          1783,
          1793,
          1672,
          1805,
          1893,
          1903,
          1892,
          1906,
          1958,
          1661,
          1782,
          1811,
          2030,
          2040,
          1719,
          1821,
          1822,
          1814,
          2145,
          1754,
          1916,
          1802,
          1673,
          1725,
          1824,
          1960,
          1790,
          1811,
          1878,
          2159,
          2001,
          1903,
          1842,
          1673,
          1735,
          1908,
          1837,
          1685,
          1728,
          1807,
          1989,
          1745,
          1843,
          1775,
          1882,
          1841,
          1711,
          1805,
          1828,
          1791,
          1786,
          1781,
          1726,
          1819,
          1741,
          1960,
          2004,
          1948,
          1794,
          1781,
          1798,
          1760,
          1948,
          1851,
          1764,
          1901,
          1937,
          1961,
          2084,
          1675,
          1756,
          1930,
          1707,
          1777,
          1792,
          1864,
          1657,
          1725,
          1798,
          1753,
          1926,
          1943,
          2058,
          2059,
          1765,
          1896,
          1791
        ],
        "WindowCenter": [
          812.0,
          810.0,
          808.0,
          809.0,
          810.0,
          811.0,
          812.0,
          809.0,
          808.0,
          809.0,
          805.0,
          808.0,
          808.0,
          805.0,
          805.0,
          810.0,
          807.0,
          808.0,
          808.0,
          808.0,
          807.0,
          811.0,
          811.0,
          813.0,
          812.0,
          810.0,
          809.0,
          810.0,
          807.0,
          809.0,
          810.0,
          807.0,
          806.0,
          809.0,
          807.0,
          807.0,
          810.0,
          811.0,
          811.0,
          810.0,
          810.0,
          811.0,
          811.0,
          810.0,
          809.0,
          809.0,
          808.0,
          810.0,
          811.0,
          808.0,
          808.0,
          809.0,
          811.0,
          809.0,
          809.0,
          808.0,
          807.0,
          808.0,
          809.0,
          809.0,
          808.0,
          809.0,
          808.0,
          812.0,
          812.0,
          813.0,
          811.0,
          808.0,
          808.0,
          806.0,
          806.0,
          808.0,
          809.0,
          810.0,
          809.0,
          811.0,
          809.0,
          811.0,
          810.0,
          811.0,
          810.0,
          810.0,
          811.0,
          810.0,
          811.0,
          811.0,
          809.0,
          811.0,
          811.0,
          812.0,
          814.0,
          814.0,
          812.0,
          810.0,
          808.0,
          810.0,
          811.0,
          812.0,
          811.0,
          812.0,
          813.0,
          811.0,
          813.0,
          813.0,
          810.0,
          809.0,
          807.0,
          809.0,
          809.0,
          810.0,
          809.0,
          812.0,
          811.0,
          812.0,
          812.0,
          812.0,
          813.0,
          815.0,
          813.0,
          811.0,
          808.0,
          808.0,
          809.0,
          811.0
        ],
        "WindowWidth": [
          1735.0,
          1728.0,
          1725.0,
          1729.0,
          1730.0,
          1732.0,
          1735.0,
          1726.0,
          1723.0,
          1724.0,
          1720.0,
          1725.0,
          1722.0,
          1714.0,
          1712.0,
          1729.0,
          1720.0,
          1723.0,
          1722.0,
          1723.0,
          1720.0,
          1731.0,
          1731.0,
          1738.0,
          1737.0,
          1727.0,
          1724.0,
          1732.0,
          1722.0,
          1726.0,
          1729.0,
          1722.0,
          1718.0,
          1725.0,
          1721.0,
          1723.0,
          1729.0,
          1732.0,
          1731.0,
          1731.0,
          1728.0,
          1732.0,
          1732.0,
          1729.0,
          1725.0,
          1725.0,
          1724.0,
          1729.0,
          1731.0,
          1724.0,
          1726.0,
          1726.0,
          1730.0,
          1727.0,
          1726.0,
          1726.0,
          1720.0,
          1723.0,
          1725.0,
          1726.0,
          1725.0,
          1728.0,
          1725.0,
          1734.0,
          1733.0,
          1737.0,
          1730.0,
          1724.0,
          1723.0,
          1719.0,
          1719.0,
          1724.0,
          1726.0,
          1728.0,
          1726.0,
          1730.0,
          1726.0,
          1732.0,
          1729.0,
          1730.0,
          1728.0,
          1728.0,
          1730.0,
          1730.0,
          1732.0,
          1732.0,
          1726.0,
          1731.0,
          1732.0,
          1735.0,
          1739.0,
          1738.0,
          1734.0,
          1729.0,
          1725.0,
          1729.0,
          1731.0,
          1734.0,
          1733.0,
          1735.0,
          1737.0,
          1733.0,
          1736.0,
          1737.0,
          1730.0,
          1727.0,
          1721.0,
          1726.0,
          1728.0,
          1727.0,
          1728.0,
          1734.0,
          1732.0,
          1734.0,
          1734.0,
          1732.0,
          1736.0,
          1743.0,
          1738.0,
          1731.0,
          1724.0,
          1724.0,
          1726.0,
          1731.0
        ]
      },
      "slices": {}
    }
  },
  "dummy_trs": 0,
  "dvars_nstd": 42.11005950560976,
  "dvars_std": 1.3908372669918694,
  "dvars_vstd": 1.1822651151219512,
  "efc": 0.5663704079681064,
  "fber": 1679.577392578125,
  "fd_mean": 0.7754873833614507,
  "fd_num": 103,
  "fd_perc": 83.06451612903226,
  "fwhm_avg": 1.5885947546990273,
  "fwhm_x": 1.5100633333333333,
  "fwhm_y": 1.7558299999999998,
  "fwhm_z": 1.4998909307637494,
  "gcor": 0.0274324,
  "gsr_x": -0.0003396379470359534,
  "gsr_y": 0.031027929857373238,
  "provenance": {
    "md5sum": "683dc6daaef4c72136a1c7161e6e4d97",
    "settings": {
      "fd_thres": 0.2,
      "testing": false
    },
    "software": "mriqc",
    "version": "22.0.1",
    "webapi_port": null,
    "webapi_url": "https://mriqc.nimh.nih.gov/api/v1"
  },
  "size_t": 124,
  "size_x": 64,
  "size_y": 64,
  "size_z": 34,
  "snr": 7.532575067040514,
  "spacing_tr": 2.3399999141693115,
  "spacing_x": 3.0,
  "spacing_y": 3.0,
  "spacing_z": 3.299999952316284,
  "summary_bg_k": 60.364610637848195,
  "summary_bg_mad": 10.641255486892717,
  "summary_bg_mean": 36.624916076660156,
  "summary_bg_median": 22.75806427001953,
  "summary_bg_n": 73515.0,
  "summary_bg_p05": 12.97580623626709,
  "summary_bg_p95": 99.87096405029297,
  "summary_bg_stdv": 51.096099853515625,
  "summary_fg_k": 1.9069006788633223,
  "summary_fg_mad": 130.15209624355603,
  "summary_fg_mean": 954.5119018554688,
  "summary_fg_median": 954.2943115234375,
  "summary_fg_n": 33748.0,
  "summary_fg_p05": 770.0322265625,
  "summary_fg_p95": 1147.3781799316405,
  "summary_fg_stdv": 126.6871109008789,
  "tsnr": 42.978380379034206
}