{
  "aor": 0.003254307692307692,
  "aqi": 0.01268681676923077,
  "bids_meta": {
    "AcquisitionMatrixPE": 64,
    "AcquisitionNumber": 1,
    "AcquisitionTime": "11:27:0.902500",
    "BandwidthPerPixelPhaseEncode": 24.038,
    "BaseResolution": 64,
    "BodyPartExamined": "HEAD",
    "ConsistencyInfo": "N4_VD13A_LATEST_20120616",
    "ConversionSoftware": "dcm2niix",
    "ConversionSoftwareVersion": "v1.0.20181125  GCC6.3.0",
    "DerivedVendorReportedEchoSpacing": 0.000650012,
    "DeviceSerialNumber": "45250",
    "DwellTime": 4.6e-06,
    "EchoTime": 0.033,
    "EchoTrainLength": 64,
    "EffectiveEchoSpacing": 0.000650012,
    "FlipAngle": 90,
    "ImageOrientationPatientDICOM": [
      0.99951,
      0.00615774,
      -0.0306768,
      -0.0104672,
      0.989758,
      -0.142368
    ],
    "ImageType": [
      "ORIGINAL",
      "PRIMARY",
      "M",
      "ND",
      "NORM",
      "MOSAIC"
    ],
    "ImagingFrequency": 123.22,
    "InPlanePhaseEncodingDirectionDICOM": "COL",
    "InstitutionAddress": "Kopernikusstr._26_Graz_Graz_AT_8010",
    "InstitutionName": "KFU",
    "InstitutionalDepartmentName": "Department",
    "MRAcquisitionType": "2D",
    "MagneticFieldStrength": 3,
    "Manufacturer": "Siemens",
    "ManufacturersModelName": "Skyra",
    "Modality": "MR",
    "PartialFourier": 1,
    "PatientPosition": "HFS",
    "PercentPhaseFOV": 100,
    "PhaseEncodingDirection": "j-",
    "PhaseEncodingSteps": 64,
    "PhaseResolution": 1,
    "PixelBandwidth": 1700,
    "ProcedureStepDescription": "KFU_Entw-Psy",
    "ProtocolName": "fMRI_2",
    "PulseSequenceDetails": "%SiemensSeq%_ep2d_pace",
    "ReceiveCoilActiveElements": "HE1-4",
    "ReceiveCoilName": "HeadNeck_20",
    "ReconMatrixPE": 64,
    "RepetitionTime": 2.34,
    "SAR": 0.170444,
    "ScanOptions": "FS",
    "ScanningSequence": "EP",
    "SequenceName": "_epfid2d1_64",
    "SequenceVariant": "SK",
    "SeriesDescription": "fMRI_2",
    "SeriesNumber": 5,
    "ShimSetting": [
      -1683,
      -3726,
      -4266,
      508,
      526,
      71,
      196,
      -314
    ],
    "SliceThickness": 3,
    "SliceTiming": [
      2.2525,
      2.185,
      2.115,
      2.0475,
      1.98,
      1.9125,
      1.8425,
      1.775,
      1.7075,
      1.6375,
      1.57,
      1.5025,
      1.4325,
      1.365,
      1.2975,
      1.23,
      1.16,
      1.0925,
      1.025,
      0.955,
      0.8875,
      0.82,
      0.7525,
      0.6825,
      0.615,
      0.5475,
      0.4775,
      0.41,
      0.3425,
      0.275,
      0.205,
      0.1375,
      0.07,
      0
    ],
    "SoftwareVersions": "syngo_MR_D13",
    "SpacingBetweenSlices": 3.3,
    "StationName": "FBMTMR1",
    "TaskName": "read",
    "TotalReadoutTime": 0.0409508,
    "TxRefAmp": 332.841,
    "dataset": "ds003126",
    "dcmmeta_affine": [
      [
        -2.9985311031341553,
        -0.0314016155898571,
        -0.09730368852615356,
        96.0440673828125
      ],
      [
        -0.018473228439688683,
        2.9692752361297607,
        -0.47064459323883057,
        -107.4951400756836
      ],
      [
        -0.09203043580055237,
        0.42710456252098083,
        3.2648162841796875,
        -11.201958656311035
      ],
      [
        0.0,
        0.0,
        0.0,
        1.0
      ]
    ],
    "dcmmeta_reorient_transform": [
      [
        0.0,
        -1.0,
        0.0,
        63.0
      ],
      [
        1.0,
        0.0,
        0.0,
        0.0
      ],
      [
        0.0,
        0.0,
        1.0,
        0.0
      ],
      [
        0.0,
        0.0,
        0.0,
        1.0
      ]
    ],
    "dcmmeta_shape": [
      64,
      64,
      34,
      130
    ],
    "dcmmeta_slice_dim": 2,
    "dcmmeta_version": 0.6,
    "global": {
      "const": {
        "AcquisitionMatrix": [
          64,
          0,
          0,
          64
        ],
        "AngioFlag": "N",
        "BitsAllocated": 16,
        "BitsStored": 12,
        "BodyPartExamined": "HEAD",
        "Columns": 384,
        "EchoNumbers": 1,
        "EchoTime": 33.0,
        "EchoTrainLength": 64,
        "FlipAngle": 90.0,
        "HighBit": 11,
        "ImageOrientationPatient": [
          0.9995103878284,
          0.00615774307455,
          -0.0306768124706,
          -0.0104672050233,
          0.98975842401357,
          -0.1423681836408
        ],
        "ImagePositionPatient": [
          -568.80649418113,
          -557.60896254793,
          98.76722656659
        ],
        "ImageType": [
          "ORIGINAL",
          "PRIMARY",
          "M",
          "ND",
          "NORM",
          "MOSAIC"
        ],
        "ImagedNucleus": "1H",
        "ImagingFrequency": 123.220056,
        "InPlanePhaseEncodingDirection": "COL",
        "MRAcquisitionType": "2D",
        "MagneticFieldStrength": 3.0,
        "Manufacturer": "SIEMENS",
        "ManufacturerModelName": "Skyra",
        "Modality": "MR",
        "NumberOfAverages": 1.0,
        "NumberOfPhaseEncodingSteps": 64,
        "PercentPhaseFieldOfView": 100.0,
        "PercentSampling": 100.0,
        "PerformedProcedureStepStartTime": "111405.576000",
        "PhotometricInterpretation": "MONOCHROME2",
        "PixelBandwidth": 1700.0,
        "PixelRepresentation": 0,
        "PixelSpacing": [
          3.0,
          3.0
        ],
        "ProtocolName": "fMRI_2",
        "RepetitionTime": 2340.0,
        "Rows": 384,
        "SAR": 0.17044364559961,
        "SamplesPerPixel": 1,
        "ScanOptions": "FS",
        "ScanningSequence": "EP",
        "SequenceName": "*epfid2d1_64",
        "SequenceVariant": "SK",
        "SeriesDescription": "fMRI_2",
        "SeriesNumber": 5,
        "SeriesTime": "112805.878000",
        "SliceLocation": 1.4164332228976,
        "SliceThickness": 3.0,
        "SmallestImagePixelValue": 0,
        "SoftwareVersions": "syngo MR D13",
        "SpacingBetweenSlices": 3.2999999221547,
        "SpecificCharacterSet": "ISO_IR 100",
        "StudyID": "1",
        "StudyTime": "111405.527000",
        "TransmitCoilName": "Body",
        "VariableFlipAngleFlag": "N",
        "WindowCenterWidthExplanation": "Algo1",
        "dBdt": 0.0
      },
      "slices": {}
    },
    "modality": "bold",
    "run_id": 2,
    "session_id": "2",
    "subject_id": "047EPKL014066",
    "task_id": "read",
    "time": {
      "samples": {
        "AcquisitionNumber": [
          1,
          2,
          3,
          4,
          5,
          6,
          7,
          8,
          9,
          10,
          11,
          12,
          13,
          14,
          15,
          16,
          17,
          18,
          19,
          20,
          21,
          22,
          23,
          24,
          25,
          26,
          27,
          28,
          29,
          30,
          31,
          32,
          33,
          34,
          35,
          36,
          37,
          38,
          39,
          40,
          41,
          42,
          43,
          44,
          45,
          46,
          47,
          48,
          49,
          50,
          51,
          52,
          53,
          54,
          55,
          56,
          57,
          58,
          59,
          60,
          61,
          62,
          63,
          64,
          65,
          66,
          67,
          68,
          69,
          70,
          71,
          72,
          73,
          74,
          75,
          76,
          77,
          78,
          79,
          80,
          81,
          82,
          83,
          84,
          85,
          86,
          87,
          88,
          89,
          90,
          91,
          92,
          93,
          94,
          95,
          96,
          97,
          98,
          99,
          100,
          101,
          102,
          103,
          104,
          105,
          106,
          107,
          108,
          109,
          110,
          111,
          112,
          113,
          114,
          115,
          116,
          117,
          118,
          119,
          120,
          121,
          122,
          123,
          124,
          125,
          126,
          127,
          128,
          129,
          130
        ],
        "AcquisitionTime": [
          "112700.902500",
          "112703.242500",
          "112705.582500",
          "112707.922500",
          "112710.262500",
          "112712.602500",
          "112714.942500",
          "112717.282500",
          "112719.622500",
          "112721.962500",
          "112724.302500",
          "112726.642500",
          "112728.982500",
          "112731.322500",
          "112733.662500",
          "112736.002500",
          "112738.342500",
          "112740.682500",
          "112743.022500",
          "112745.362500",
          "112747.702500",
          "112750.042500",
          "112752.382500",
          "112754.722500",
          "112757.062500",
          "112759.402500",
          "112801.742500",
          "112804.082500",
          "112806.422500",
          "112808.762500",
          "112811.102500",
          "112813.442500",
          "112815.782500",
          "112818.122500",
          "112820.462500",
          "112822.802500",
          "112825.142500",
          "112827.482500",
          "112829.822500",
          "112832.162500",
          "112834.502500",
          "112836.842500",
          "112839.182500",
          "112841.522500",
          "112843.862500",
          "112846.202500",
          "112848.542500",
          "112850.882500",
          "112853.222500",
          "112855.562500",
          "112857.902500",
          "112900.242500",
          "112902.582500",
          "112904.922500",
          "112907.262500",
          "112909.602500",
          "112911.942500",
          "112914.282500",
          "112916.622500",
          "112918.962500",
          "112921.302500",
          "112923.642500",
          "112925.982500",
          "112928.322500",
          "112930.662500",
          "112933.002500",
          "112935.342500",
          "112937.682500",
          "112940.022500",
          "112942.362500",
          "112944.702500",
          "112947.042500",
          "112949.382500",
          "112951.722500",
          "112954.062500",
          "112956.402500",
          "112958.742500",
          "113001.082500",
          "113003.422500",
          "113005.762500",
          "113008.102500",
          "113010.442500",
          "113012.782500",
          "113015.122500",
          "113017.462500",
          "113019.802500",
          "113022.142500",
          "113024.482500",
          "113026.822500",
          "113029.162500",
          "113031.502500",
          "113033.842500",
          "113036.182500",
          "113038.522500",
          "113040.862500",
          "113043.202500",
          "113045.542500",
          "113047.882500",
          "113050.222500",
          "113052.562500",
          "113054.902500",
          "113057.242500",
          "113059.582500",
          "113101.922500",
          "113104.262500",
          "113106.602500",
          "113108.942500",
          "113111.282500",
          "113113.622500",
          "113115.962500",
          "113118.302500",
          "113120.642500",
          "113122.982500",
          "113125.322500",
          "113127.662500",
          "113130.002500",
          "113132.342500",
          "113134.682500",
          "113137.022500",
          "113139.362500",
          "113141.702500",
          "113144.042500",
          "113146.382500",
          "113148.722500",
          "113151.062500",
          "113153.402500",
          "113155.742500",
          "113158.082500",
          "113200.422500",
          "113202.762500"
        ],
        "ContentTime": [
          "112805.882000",
          "112805.885000",
          "112805.899000",
          "112805.901000",
          "112805.904000",
          "112805.907000",
          "112805.910000",
          "112805.912000",
          "112805.915000",
          "112805.917000",
          "112805.920000",
          "112805.923000",
          "112805.925000",
          "112805.928000",
          "112805.931000",
          "112805.933000",
          "112805.936000",
          "112805.938000",
          "112805.941000",
          "112805.949000",
          "112805.951000",
          "112805.954000",
          "112805.957000",
          "112805.959000",
          "112805.962000",
          "112805.964000",
          "112805.967000",
          "112805.970000",
          "112905.877000",
          "112905.880000",
          "112905.883000",
          "112905.886000",
          "112905.888000",
          "112905.891000",
          "112905.894000",
          "112905.896000",
          "112905.899000",
          "112905.901000",
          "112905.904000",
          "112905.907000",
          "112905.910000",
          "112905.912000",
          "112905.915000",
          "112905.917000",
          "112905.920000",
          "112905.923000",
          "112905.925000",
          "112905.928000",
          "112905.931000",
          "112905.933000",
          "112905.936000",
          "112905.939000",
          "112905.945000",
          "112905.948000",
          "113005.877000",
          "113005.885000",
          "113005.888000",
          "113005.890000",
          "113005.893000",
          "113005.896000",
          "113005.898000",
          "113005.901000",
          "113005.903000",
          "113005.907000",
          "113005.909000",
          "113005.912000",
          "113005.914000",
          "113005.917000",
          "113005.919000",
          "113005.922000",
          "113005.925000",
          "113005.927000",
          "113005.930000",
          "113005.932000",
          "113005.935000",
          "113005.938000",
          "113005.940000",
          "113005.943000",
          "113005.945000",
          "113105.877000",
          "113105.880000",
          "113105.883000",
          "113105.891000",
          "113105.893000",
          "113105.896000",
          "113105.898000",
          "113105.901000",
          "113105.904000",
          "113105.906000",
          "113105.909000",
          "113105.912000",
          "113105.915000",
          "113105.917000",
          "113105.920000",
          "113105.923000",
          "113105.925000",
          "113105.928000",
          "113105.935000",
          "113105.938000",
          "113105.941000",
          "113105.943000",
          "113105.946000",
          "113105.949000",
          "113105.951000",
          "113105.954000",
          "113203.507000",
          "113203.510000",
          "113203.513000",
          "113203.516000",
          "113203.520000",
          "113203.523000",
          "113203.527000",
          "113203.530000",
          "113203.533000",
          "113203.536000",
          "113203.539000",
          "113203.542000",
          "113203.545000",
          "113203.547000",
          "113203.550000",
          "113203.553000",
          "113203.556000",
          "113203.559000",
          "113203.561000",
          "113203.564000",
          "113203.567000",
          "113203.570000",
          "113203.572000",
          "113203.575000",
          "113203.578000"
        ],
        "InstanceCreationTime": [
          "112805.882000",
          "112805.885000",
          "112805.899000",
          "112805.901000",
          "112805.904000",
          "112805.907000",
          "112805.910000",
          "112805.912000",
          "112805.915000",
          "112805.917000",
          "112805.920000",
          "112805.923000",
          "112805.925000",
          "112805.928000",
          "112805.931000",
          "112805.933000",
          "112805.936000",
          "112805.938000",
          "112805.941000",
          "112805.949000",
          "112805.951000",
          "112805.954000",
          "112805.957000",
          "112805.959000",
          "112805.962000",
          "112805.964000",
          "112805.967000",
          "112805.970000",
          "112905.877000",
          "112905.880000",
          "112905.883000",
          "112905.886000",
          "112905.888000",
          "112905.891000",
          "112905.894000",
          "112905.896000",
          "112905.899000",
          "112905.901000",
          "112905.904000",
          "112905.907000",
          "112905.910000",
          "112905.912000",
          "112905.915000",
          "112905.917000",
          "112905.920000",
          "112905.923000",
          "112905.925000",
          "112905.928000",
          "112905.931000",
          "112905.933000",
          "112905.936000",
          "112905.939000",
          "112905.945000",
          "112905.948000",
          "113005.877000",
          "113005.885000",
          "113005.888000",
          "113005.890000",
          "113005.893000",
          "113005.896000",
          "113005.898000",
          "113005.901000",
          "113005.903000",
          "113005.907000",
          "113005.909000",
          "113005.912000",
          "113005.914000",
          "113005.917000",
          "113005.919000",
          "113005.922000",
          "113005.925000",
          "113005.927000",
          "113005.930000",
          "113005.932000",
          "113005.935000",
          "113005.938000",
          "113005.940000",
          "113005.943000",
          "113005.945000",
          "113105.877000",
          "113105.880000",
          "113105.883000",
          "113105.891000",
          "113105.893000",
          "113105.896000",
          "113105.898000",
          "113105.901000",
          "113105.904000",
          "113105.906000",
          "113105.909000",
          "113105.912000",
          "113105.915000",
          "113105.917000",
          "113105.920000",
          "113105.923000",
          "113105.925000",
          "113105.928000",
          "113105.935000",
          "113105.938000",
          "113105.941000",
          "113105.943000",
          "113105.946000",
          "113105.949000",
          "113105.951000",
          "113105.954000",
          "113203.507000",
          "113203.510000",
          "113203.513000",
          "113203.516000",
          "113203.520000",
          "113203.523000",
          "113203.527000",
          "113203.530000",
          "113203.533000",
          "113203.536000",
          "113203.539000",
          "113203.542000",
          "113203.545000",
          "113203.547000",
          "113203.550000",
          "113203.553000",
          "113203.556000",
          "113203.559000",
          "113203.561000",
          "113203.564000",
          "113203.567000",
          "113203.570000",
          "113203.572000",
          "113203.575000",
          "113203.578000"
        ],
        "InstanceNumber": [
          1,
          2,
          3,
          4,
          5,
          6,
          7,
          8,
          9,
          10,
          11,
          12,
          13,
          14,
          15,
          16,
          17,
          18,
          19,
          20,
          21,
          22,
          23,
          24,
          25,
          26,
          27,
          28,
          29,
          30,
          31,
          32,
          33,
          34,
          35,
          36,
          37,
          38,
          39,
          40,
          41,
          42,
          43,
          44,
          45,
          46,
          47,
          48,
          49,
          50,
          51,
          52,
          53,
          54,
          55,
          56,
          57,
          58,
          59,
          60,
          61,
          62,
          63,
          64,
          65,
          66,
          67,
          68,
          69,
          70,
          71,
          72,
          73,
          74,
          75,
          76,
          77,
          78,
          79,
          80,
          81,
          82,
          83,
          84,
          85,
          86,
          87,
          88,
          89,
          90,
          91,
          92,
          93,
          94,
          95,
          96,
          97,
          98,
          99,
          100,
          101,
          102,
          103,
          104,
          105,
          106,
          107,
          108,
          109,
          110,
          111,
          112,
          113,
          114,
          115,
          116,
          117,
          118,
          119,
          120,
          121,
          122,
          123,
          124,
          125,
          126,
          127,
          128,
          129,
          130
        ],
        "LargestImagePixelValue": [
          2001,
          1892,
          2380,
          2616,
          2490,
          2678,
          2595,
          2736,
          2255,
          1719,
          1879,
          1929,
          2256,
          2013,
          1836,
          1958,
          2145,
          2142,
          1852,
          1803,
          1647,
          2085,
          1723,
          2911,
          2731,
          1719,
          2098,
          2473,
          1725,
          2761,
          2520,
          2000,
          1736,
          2209,
          2483,
          1868,
          1977,
          2893,
          2789,
          2124,
          1751,
          1879,
          2126,
          2107,
          1867,
          1816,
          1818,
          2847,
          2455,
          2355,
          2013,
          2600,
          1833,
          2133,
          1902,
          1755,
          1691,
          1995,
          2084,
          2548,
          1767,
          1887,
          2220,
          1712,
          2701,
          2172,
          2073,
          2291,
          1935,
          2631,
          2183,
          1905,
          1773,
          1939,
          1723,
          1785,
          2364,
          1919,
          2596,
          2714,
          2595,
          2451,
          2451,
          2411,
          1732,
          2350,
          2357,
          1892,
          1904,
          1709,
          1865,
          2786,
          2445,
          1723,
          2325,
          2505,
          2171,
          1880,
          2654,
          1936,
          1758,
          2585,
          2589,
          2390,
          2474,
          2666,
          2352,
          1913,
          2050,
          1930,
          1779,
          1918,
          1754,
          2329,
          2624,
          2180,
          1705,
          2477,
          2813,
          2713,
          1839,
          1957,
          2620,
          2557,
          1753,
          1784,
          2073,
          2057,
          2555,
          2774
        ],
        "WindowCenter": [
          783.0,
          783.0,
          784.0,
          783.0,
          782.0,
          781.0,
          780.0,
          779.0,
          778.0,
          779.0,
          780.0,
          779.0,
          779.0,
          779.0,
          780.0,
          781.0,
          781.0,
          782.0,
          779.0,
          782.0,
          780.0,
          784.0,
          781.0,
          784.0,
          782.0,
          781.0,
          782.0,
          785.0,
          781.0,
          785.0,
          782.0,
          782.0,
          781.0,
          781.0,
          781.0,
          780.0,
          780.0,
          782.0,
          780.0,
          780.0,
          779.0,
          782.0,
          784.0,
          783.0,
          781.0,
          784.0,
          783.0,
          784.0,
          782.0,
          781.0,
          781.0,
          783.0,
          781.0,
          783.0,
          782.0,
          781.0,
          782.0,
          782.0,
          782.0,
          783.0,
          783.0,
          783.0,
          783.0,
          783.0,
          783.0,
          782.0,
          783.0,
          782.0,
          782.0,
          783.0,
          784.0,
          782.0,
          782.0,
          783.0,
          783.0,
          783.0,
          785.0,
          783.0,
          785.0,
          786.0,
          784.0,
          785.0,
          785.0,
          784.0,
          783.0,
          784.0,
          783.0,
          784.0,
          785.0,
          784.0,
          783.0,
          785.0,
          784.0,
          784.0,
          786.0,
          784.0,
          783.0,
          784.0,
          785.0,
          784.0,
          784.0,
          786.0,
          784.0,
          785.0,
          783.0,
          785.0,
          785.0,
          782.0,
          783.0,
          782.0,
          783.0,
          785.0,
          785.0,
          785.0,
          787.0,
          787.0,
          785.0,
          786.0,
          785.0,
          786.0,
          784.0,
          785.0,
          785.0,
          785.0,
          783.0,
          785.0,
          786.0,
          786.0,
          787.0,
          787.0
        ],
        "WindowWidth": [
          1667.0,
          1666.0,
          1669.0,
          1667.0,
          1664.0,
          1664.0,
          1661.0,
          1658.0,
          1656.0,
          1657.0,
          1659.0,
          1658.0,
          1659.0,
          1658.0,
          1660.0,
          1664.0,
          1662.0,
          1665.0,
          1658.0,
          1666.0,
          1662.0,
          1669.0,
          1661.0,
          1673.0,
          1665.0,
          1662.0,
          1666.0,
          1672.0,
          1663.0,
          1674.0,
          1666.0,
          1666.0,
          1663.0,
          1663.0,
          1664.0,
          1660.0,
          1663.0,
          1665.0,
          1659.0,
          1659.0,
          1657.0,
          1665.0,
          1670.0,
          1669.0,
          1664.0,
          1669.0,
          1667.0,
          1669.0,
          1666.0,
          1662.0,
          1664.0,
          1669.0,
          1662.0,
          1671.0,
          1665.0,
          1664.0,
          1666.0,
          1667.0,
          1667.0,
          1669.0,
          1668.0,
          1667.0,
          1670.0,
          1668.0,
          1670.0,
          1666.0,
          1668.0,
          1666.0,
          1666.0,
          1669.0,
          1670.0,
          1664.0,
          1666.0,
          1668.0,
          1668.0,
          1670.0,
          1672.0,
          1669.0,
          1674.0,
          1675.0,
          1670.0,
          1674.0,
          1675.0,
          1672.0,
          1669.0,
          1671.0,
          1670.0,
          1672.0,
          1673.0,
          1669.0,
          1667.0,
          1674.0,
          1671.0,
          1669.0,
          1676.0,
          1671.0,
          1669.0,
          1671.0,
          1674.0,
          1670.0,
          1671.0,
          1675.0,
          1671.0,
          1672.0,
          1669.0,
          1675.0,
          1672.0,
          1666.0,
          1668.0,
          1666.0,
          1669.0,
          1672.0,
          1672.0,
          1674.0,
          1677.0,
          1679.0,
          1673.0,
          1677.0,
          1676.0,
          1675.0,
          1672.0,
          1675.0,
          1675.0,
          1672.0,
          1667.0,
          1673.0,
          1678.0,
          1678.0,
          1679.0,
          1680.0
        ]
      },
      "slices": {}
    }
  },
  "dummy_trs": 0,
  "dvars_nstd": 32.55637248759691,
  "dvars_std": 1.2776392520155035,
  "dvars_vstd": 1.0314285110852714,
  "efc": 0.5569997760414854,
  "fber": 1724.9227294921875,
  "fd_mean": 0.40875352799279974,
  "fd_num": 94,
  "fd_perc": 72.3076923076923,
  "fwhm_avg": 1.6500524315808711,
  "fwhm_x": 1.5742833333333335,
  "fwhm_y": 1.8522800000000001,
  "fwhm_z": 1.5235939614092793,
  "gcor": 0.0519317,
  "gsr_x": -0.0028366055339574814,
  "gsr_y": 0.034786682575941086,
  "provenance": {
    "md5sum": "33a7accb2c61613567d4aae8833e652c",
    "settings": {
      "fd_thres": 0.2,
      "testing": false
    },
    "software": "mriqc",
    "version": "22.0.1",
    "webapi_port": null,
    "webapi_url": "https://mriqc.nimh.nih.gov/api/v1"
  },
  "size_t": 130,
  "size_x": 64,
  "size_y": 64,
  "size_z": 34,
  "snr": 7.219442105836067,
  "spacing_tr": 2.3399999141693115,
  "spacing_x": 3.0,
  "spacing_y": 3.0,
  "spacing_z": 3.299999952316284,
  "summary_bg_k": 103.09096650521418,
  "summary_bg_mad": 8.39381039684134,
  "summary_bg_mean": 33.48514938354492,
  "summary_bg_median": 21.576923370361328,
  "summary_bg_n": 74894.0,
  "summary_bg_p05": 12.269230842590332,
  "summary_bg_p95": 83.59499969482415,
  "summary_bg_stdv": 47.93394088745117,
  "summary_fg_k": 2.8843964247254386,
  "summary_fg_mad": 119.23546010854147,
  "summary_fg_mean": 916.5159301757812,
  "summary_fg_median": 915.7077026367188,
  "summary_fg_n": 32410.0,
  "summary_fg_p05": 729.3684600830078,
  "summary_fg_p95": 1105.947705078125,
  "summary_fg_stdv": 126.83716583251953,
  "tsnr": 59.1315870891558
}