{
  "aor": 0.010615080645161291,
  "aqi": 0.018107141290322582,
  "bids_meta": {
    "AcquisitionMatrixPE": 64,
    "AcquisitionNumber": 1,
    "AcquisitionTime": "11:33:1.322500",
    "BandwidthPerPixelPhaseEncode": 24.038,
    "BaseResolution": 64,
    "BodyPartExamined": "HEAD",
    "ConsistencyInfo": "N4_VD13A_LATEST_20120616",
    "ConversionSoftware": "dcm2niix",
    "ConversionSoftwareVersion": "v1.0.20181125  GCC6.3.0",
    "DerivedVendorReportedEchoSpacing": 0.000650012,
    "DeviceSerialNumber": "45250",
    "DwellTime": 4.6e-06,
    "EchoTime": 0.033,
    "EchoTrainLength": 64,
    "EffectiveEchoSpacing": 0.000650012,
    "FlipAngle": 90,
    "ImageOrientationPatientDICOM": [
      0.99951,
      0.00615774,
      -0.0306768,
      -0.0104672,
      0.989758,
      -0.142368
    ],
    "ImageType": [
      "ORIGINAL",
      "PRIMARY",
      "M",
      "ND",
      "NORM",
      "MOSAIC"
    ],
    "ImagingFrequency": 123.22,
    "InPlanePhaseEncodingDirectionDICOM": "COL",
    "InstitutionAddress": "Kopernikusstr._26_Graz_Graz_AT_8010",
    "InstitutionName": "KFU",
    "InstitutionalDepartmentName": "Department",
    "MRAcquisitionType": "2D",
    "MagneticFieldStrength": 3,
    "Manufacturer": "Siemens",
    "ManufacturersModelName": "Skyra",
    "Modality": "MR",
    "PartialFourier": 1,
    "PatientPosition": "HFS",
    "PercentPhaseFOV": 100,
    "PhaseEncodingDirection": "j-",
    "PhaseEncodingSteps": 64,
    "PhaseResolution": 1,
    "PixelBandwidth": 1700,
    "ProcedureStepDescription": "KFU_Entw-Psy",
    "ProtocolName": "fMRI_3",
    "PulseSequenceDetails": "%SiemensSeq%_ep2d_pace",
    "ReceiveCoilActiveElements": "HE1-4",
    "ReceiveCoilName": "HeadNeck_20",
    "ReconMatrixPE": 64,
    "RepetitionTime": 2.34,
    "SAR": 0.170444,
    "ScanOptions": "FS",
    "ScanningSequence": "EP",
    "SequenceName": "_epfid2d1_64",
    "SequenceVariant": "SK",
    "SeriesDescription": "fMRI_3",
    "SeriesNumber": 8,
    "ShimSetting": [
      -1683,
      -3726,
      -4266,
      508,
      526,
      71,
      196,
      -314
    ],
    "SliceThickness": 3,
    "SliceTiming": [
      2.25,
      2.1825,
      2.115,
      2.0475,
      1.9775,
      1.91,
      1.8425,
      1.7725,
      1.705,
      1.6375,
      1.57,
      1.5,
      1.4325,
      1.365,
      1.295,
      1.2275,
      1.16,
      1.09,
      1.0225,
      0.955,
      0.8875,
      0.8175,
      0.75,
      0.6825,
      0.6125,
      0.545,
      0.4775,
      0.41,
      0.34,
      0.2725,
      0.205,
      0.135,
      0.0675,
      0
    ],
    "SoftwareVersions": "syngo_MR_D13",
    "SpacingBetweenSlices": 3.3,
    "StationName": "FBMTMR1",
    "TaskName": "read",
    "TotalReadoutTime": 0.0409508,
    "TxRefAmp": 332.841,
    "dataset": "ds003126",
    "dcmmeta_affine": [
      [
        -2.9985311031341553,
        -0.0314016155898571,
        -0.09730368852615356,
        96.0440673828125
      ],
      [
        -0.018473228439688683,
        2.9692752361297607,
        -0.47064459323883057,
        -107.4951400756836
      ],
      [
        -0.09203043580055237,
        0.42710456252098083,
        3.2648162841796875,
        -11.201958656311035
      ],
      [
        0.0,
        0.0,
        0.0,
        1.0
      ]
    ],
    "dcmmeta_reorient_transform": [
      [
        0.0,
        -1.0,
        0.0,
        63.0
      ],
      [
        1.0,
        0.0,
        0.0,
        0.0
      ],
      [
        0.0,
        0.0,
        1.0,
        0.0
      ],
      [
        0.0,
        0.0,
        0.0,
        1.0
      ]
    ],
    "dcmmeta_shape": [
      64,
      64,
      34,
      124
    ],
    "dcmmeta_slice_dim": 2,
    "dcmmeta_version": 0.6,
    "global": {
      "const": {
        "AcquisitionMatrix": [
          64,
          0,
          0,
          64
        ],
        "AngioFlag": "N",
        "BitsAllocated": 16,
        "BitsStored": 12,
        "BodyPartExamined": "HEAD",
        "Columns": 384,
        "EchoNumbers": 1,
        "EchoTime": 33.0,
        "EchoTrainLength": 64,
        "FlipAngle": 90.0,
        "HighBit": 11,
        "ImageOrientationPatient": [
          0.9995103878284,
          0.00615774307455,
          -0.0306768124706,
          -0.0104672050233,
          0.98975842401357,
          -0.1423681836408
        ],
        "ImagePositionPatient": [
          -568.80649418113,
          -557.60896254793,
          98.76722656659
        ],
        "ImageType": [
          "ORIGINAL",
          "PRIMARY",
          "M",
          "ND",
          "NORM",
          "MOSAIC"
        ],
        "ImagedNucleus": "1H",
        "ImagingFrequency": 123.220063,
        "InPlanePhaseEncodingDirection": "COL",
        "MRAcquisitionType": "2D",
        "MagneticFieldStrength": 3.0,
        "Manufacturer": "SIEMENS",
        "ManufacturerModelName": "Skyra",
        "Modality": "MR",
        "NumberOfAverages": 1.0,
        "NumberOfPhaseEncodingSteps": 64,
        "PercentPhaseFieldOfView": 100.0,
        "PercentSampling": 100.0,
        "PerformedProcedureStepStartTime": "111405.576000",
        "PhotometricInterpretation": "MONOCHROME2",
        "PixelBandwidth": 1700.0,
        "PixelRepresentation": 0,
        "PixelSpacing": [
          3.0,
          3.0
        ],
        "ProtocolName": "fMRI_3",
        "RepetitionTime": 2340.0,
        "Rows": 384,
        "SAR": 0.17044364559961,
        "SamplesPerPixel": 1,
        "ScanOptions": "FS",
        "ScanningSequence": "EP",
        "SequenceName": "*epfid2d1_64",
        "SequenceVariant": "SK",
        "SeriesDescription": "fMRI_3",
        "SeriesNumber": 8,
        "SeriesTime": "113349.110000",
        "SliceLocation": 1.4164332228976,
        "SliceThickness": 3.0,
        "SmallestImagePixelValue": 0,
        "SoftwareVersions": "syngo MR D13",
        "SpacingBetweenSlices": 3.2999999221547,
        "SpecificCharacterSet": "ISO_IR 100",
        "StudyID": "1",
        "StudyTime": "111405.527000",
        "TransmitCoilName": "Body",
        "VariableFlipAngleFlag": "N",
        "WindowCenterWidthExplanation": "Algo1",
        "dBdt": 0.0
      },
      "slices": {}
    },
    "modality": "bold",
    "run_id": 3,
    "session_id": "2",
    "subject_id": "047EPKL014066",
    "task_id": "read",
    "time": {
      "samples": {
        "AcquisitionNumber": [
          1,
          2,
          3,
          4,
          5,
          6,
          7,
          8,
          9,
          10,
          11,
          12,
          13,
          14,
          15,
          16,
          17,
          18,
          19,
          20,
          21,
          22,
          23,
          24,
          25,
          26,
          27,
          28,
          29,
          30,
          31,
          32,
          33,
          34,
          35,
          36,
          37,
          38,
          39,
          40,
          41,
          42,
          43,
          44,
          45,
          46,
          47,
          48,
          49,
          50,
          51,
          52,
          53,
          54,
          55,
          56,
          57,
          58,
          59,
          60,
          61,
          62,
          63,
          64,
          65,
          66,
          67,
          68,
          69,
          70,
          71,
          72,
          73,
          74,
          75,
          76,
          77,
          78,
          79,
          80,
          81,
          82,
          83,
          84,
          85,
          86,
          87,
          88,
          89,
          90,
          91,
          92,
          93,
          94,
          95,
          96,
          97,
          98,
          99,
          100,
          101,
          102,
          103,
          104,
          105,
          106,
          107,
          108,
          109,
          110,
          111,
          112,
          113,
          114,
          115,
          116,
          117,
          118,
          119,
          120,
          121,
          122,
          123,
          124
        ],
        "AcquisitionTime": [
          "113301.322500",
          "113303.662500",
          "113306.002500",
          "113308.342500",
          "113310.682500",
          "113313.022500",
          "113315.362500",
          "113317.702500",
          "113320.042500",
          "113322.382500",
          "113324.722500",
          "113327.062500",
          "113329.402500",
          "113331.742500",
          "113334.082500",
          "113336.422500",
          "113338.762500",
          "113341.102500",
          "113343.442500",
          "113345.782500",
          "113348.122500",
          "113350.462500",
          "113352.802500",
          "113355.142500",
          "113357.482500",
          "113359.822500",
          "113402.162500",
          "113404.502500",
          "113406.842500",
          "113409.182500",
          "113411.522500",
          "113413.862500",
          "113416.202500",
          "113418.542500",
          "113420.882500",
          "113423.222500",
          "113425.562500",
          "113427.902500",
          "113430.242500",
          "113432.582500",
          "113434.922500",
          "113437.262500",
          "113439.602500",
          "113441.942500",
          "113444.282500",
          "113446.622500",
          "113448.962500",
          "113451.302500",
          "113453.642500",
          "113455.982500",
          "113458.322500",
          "113500.662500",
          "113503.002500",
          "113505.342500",
          "113507.682500",
          "113510.022500",
          "113512.362500",
          "113514.702500",
          "113517.042500",
          "113519.382500",
          "113521.722500",
          "113524.062500",
          "113526.402500",
          "113528.742500",
          "113531.082500",
          "113533.422500",
          "113535.762500",
          "113538.102500",
          "113540.442500",
          "113542.782500",
          "113545.122500",
          "113547.462500",
          "113549.802500",
          "113552.142500",
          "113554.482500",
          "113556.822500",
          "113559.162500",
          "113601.502500",
          "113603.842500",
          "113606.182500",
          "113608.522500",
          "113610.862500",
          "113613.202500",
          "113615.542500",
          "113617.882500",
          "113620.222500",
          "113622.562500",
          "113624.902500",
          "113627.242500",
          "113629.582500",
          "113631.922500",
          "113634.262500",
          "113636.602500",
          "113638.942500",
          "113641.282500",
          "113643.622500",
          "113645.962500",
          "113648.302500",
          "113650.642500",
          "113652.982500",
          "113655.322500",
          "113657.662500",
          "113700.002500",
          "113702.342500",
          "113704.682500",
          "113707.022500",
          "113709.362500",
          "113711.702500",
          "113714.042500",
          "113716.382500",
          "113718.722500",
          "113721.062500",
          "113723.402500",
          "113725.742500",
          "113728.082500",
          "113730.422500",
          "113732.762500",
          "113735.102500",
          "113737.442500",
          "113739.782500",
          "113742.122500",
          "113744.462500",
          "113746.802500",
          "113749.142500"
        ],
        "ContentTime": [
          "113349.115000",
          "113349.119000",
          "113349.122000",
          "113349.125000",
          "113349.132000",
          "113349.135000",
          "113349.137000",
          "113349.140000",
          "113349.142000",
          "113349.145000",
          "113349.148000",
          "113349.151000",
          "113349.153000",
          "113349.156000",
          "113349.159000",
          "113349.161000",
          "113349.164000",
          "113349.167000",
          "113349.170000",
          "113349.173000",
          "113349.175000",
          "113449.109000",
          "113449.113000",
          "113449.116000",
          "113449.118000",
          "113449.121000",
          "113449.124000",
          "113449.126000",
          "113449.129000",
          "113449.132000",
          "113449.135000",
          "113449.137000",
          "113449.140000",
          "113449.142000",
          "113449.145000",
          "113449.148000",
          "113449.150000",
          "113449.153000",
          "113449.156000",
          "113449.159000",
          "113449.161000",
          "113449.164000",
          "113449.167000",
          "113449.169000",
          "113449.172000",
          "113449.175000",
          "113549.109000",
          "113549.112000",
          "113549.115000",
          "113549.125000",
          "113549.127000",
          "113549.130000",
          "113549.133000",
          "113549.136000",
          "113549.138000",
          "113549.141000",
          "113549.144000",
          "113549.147000",
          "113549.149000",
          "113549.152000",
          "113549.154000",
          "113549.157000",
          "113549.160000",
          "113549.162000",
          "113549.165000",
          "113549.168000",
          "113549.170000",
          "113549.173000",
          "113549.175000",
          "113549.178000",
          "113549.181000",
          "113549.183000",
          "113649.109000",
          "113649.112000",
          "113649.121000",
          "113649.124000",
          "113649.127000",
          "113649.134000",
          "113649.137000",
          "113649.139000",
          "113649.142000",
          "113649.145000",
          "113649.148000",
          "113649.151000",
          "113649.153000",
          "113649.156000",
          "113649.159000",
          "113649.162000",
          "113649.164000",
          "113649.167000",
          "113649.170000",
          "113649.172000",
          "113649.175000",
          "113649.178000",
          "113649.180000",
          "113649.183000",
          "113649.186000",
          "113749.109000",
          "113749.112000",
          "113749.115000",
          "113749.118000",
          "113749.127000",
          "113749.130000",
          "113749.132000",
          "113749.135000",
          "113749.138000",
          "113749.140000",
          "113749.143000",
          "113749.145000",
          "113749.148000",
          "113749.151000",
          "113749.153000",
          "113749.156000",
          "113749.159000",
          "113749.162000",
          "113749.164000",
          "113749.167000",
          "113749.170000",
          "113749.182000",
          "113749.185000",
          "113749.187000",
          "113749.190000",
          "113749.193000",
          "113750.580000"
        ],
        "InstanceCreationTime": [
          "113349.115000",
          "113349.119000",
          "113349.122000",
          "113349.125000",
          "113349.132000",
          "113349.135000",
          "113349.137000",
          "113349.140000",
          "113349.142000",
          "113349.145000",
          "113349.148000",
          "113349.151000",
          "113349.153000",
          "113349.156000",
          "113349.159000",
          "113349.161000",
          "113349.164000",
          "113349.167000",
          "113349.170000",
          "113349.173000",
          "113349.175000",
          "113449.109000",
          "113449.113000",
          "113449.116000",
          "113449.118000",
          "113449.121000",
          "113449.124000",
          "113449.126000",
          "113449.129000",
          "113449.132000",
          "113449.135000",
          "113449.137000",
          "113449.140000",
          "113449.142000",
          "113449.145000",
          "113449.148000",
          "113449.150000",
          "113449.153000",
          "113449.156000",
          "113449.159000",
          "113449.161000",
          "113449.164000",
          "113449.167000",
          "113449.169000",
          "113449.172000",
          "113449.175000",
          "113549.109000",
          "113549.112000",
          "113549.115000",
          "113549.125000",
          "113549.127000",
          "113549.130000",
          "113549.133000",
          "113549.136000",
          "113549.138000",
          "113549.141000",
          "113549.144000",
          "113549.147000",
          "113549.149000",
          "113549.152000",
          "113549.154000",
          "113549.157000",
          "113549.160000",
          "113549.162000",
          "113549.165000",
          "113549.168000",
          "113549.170000",
          "113549.173000",
          "113549.175000",
          "113549.178000",
          "113549.181000",
          "113549.183000",
          "113649.109000",
          "113649.112000",
          "113649.121000",
          "113649.124000",
          "113649.127000",
          "113649.134000",
          "113649.137000",
          "113649.139000",
          "113649.142000",
          "113649.145000",
          "113649.148000",
          "113649.151000",
          "113649.153000",
          "113649.156000",
          "113649.159000",
          "113649.162000",
          "113649.164000",
          "113649.167000",
          "113649.170000",
          "113649.172000",
          "113649.175000",
          "113649.178000",
          "113649.180000",
          "113649.183000",
          "113649.186000",
          "113749.109000",
          "113749.112000",
          "113749.115000",
          "113749.118000",
          "113749.127000",
          "113749.130000",
          "113749.132000",
          "113749.135000",
          "113749.138000",
          "113749.140000",
          "113749.143000",
          "113749.145000",
          "113749.148000",
          "113749.151000",
          "113749.153000",
          "113749.156000",
          "113749.159000",
          "113749.162000",
          "113749.164000",
          "113749.167000",
          "113749.170000",
          "113749.182000",
          "113749.185000",
          "113749.187000",
          "113749.190000",
          "113749.193000",
          "113750.580000"
        ],
        "InstanceNumber": [
          1,
          2,
          3,
          4,
          5,
          6,
          7,
          8,
          9,
          10,
          11,
          12,
          13,
          14,
          15,
          16,
          17,
          18,
          19,
          20,
          21,
          22,
          23,
          24,
          25,
          26,
          27,
          28,
          29,
          30,
          31,
          32,
          33,
          34,
          35,
          36,
          37,
          38,
          39,
          40,
          41,
          42,
          43,
          44,
          45,
          46,
          47,
          48,
          49,
          50,
          51,
          52,
          53,
          54,
          55,
          56,
          57,
          58,
          59,
          60,
          61,
          62,
          63,
          64,
          65,
          66,
          67,
          68,
          69,
          70,
          71,
          72,
          73,
          74,
          75,
          76,
          77,
          78,
          79,
          80,
          81,
          82,
          83,
          84,
          85,
          86,
          87,
          88,
          89,
          90,
          91,
          92,
          93,
          94,
          95,
          96,
          97,
          98,
          99,
          100,
          101,
          102,
          103,
          104,
          105,
          106,
          107,
          108,
          109,
          110,
          111,
          112,
          113,
          114,
          115,
          116,
          117,
          118,
          119,
          120,
          121,
          122,
          123,
          124
        ],
        "LargestImagePixelValue": [
          2432,
          2193,
          2075,
          2540,
          2709,
          2046,
          2346,
          2483,
          2336,
          2032,
          1789,
          2222,
          2555,
          2339,
          2603,
          2336,
          2388,
          2229,
          2180,
          1832,
          2258,
          2336,
          2329,
          2072,
          2146,
          2489,
          2301,
          2233,
          2270,
          2474,
          2268,
          2162,
          2081,
          1891,
          2225,
          2006,
          2112,
          2425,
          2454,
          2491,
          2225,
          2532,
          2479,
          2543,
          1895,
          2274,
          2104,
          2206,
          2272,
          2502,
          2714,
          2460,
          2429,
          2045,
          2213,
          2244,
          2201,
          2558,
          2376,
          2716,
          2462,
          2127,
          2482,
          2147,
          2317,
          2043,
          2504,
          2559,
          2176,
          2228,
          2054,
          2518,
          2635,
          2007,
          2355,
          2182,
          2200,
          2601,
          2097,
          2153,
          2068,
          2079,
          1880,
          2588,
          1808,
          2050,
          2524,
          2454,
          2309,
          2398,
          1845,
          1710,
          1903,
          2331,
          2514,
          2549,
          2532,
          2093,
          2353,
          2077,
          2277,
          2068,
          2473,
          2674,
          2358,
          2272,
          2529,
          1994,
          2317,
          2381,
          1788,
          2276,
          2356,
          2082,
          2543,
          2037,
          2340,
          2232,
          2304,
          2611,
          2584,
          2429,
          2102,
          2683
        ],
        "WindowCenter": [
          785.0,
          783.0,
          783.0,
          784.0,
          785.0,
          782.0,
          782.0,
          782.0,
          781.0,
          785.0,
          782.0,
          783.0,
          784.0,
          783.0,
          783.0,
          782.0,
          782.0,
          782.0,
          784.0,
          786.0,
          784.0,
          785.0,
          781.0,
          786.0,
          782.0,
          784.0,
          783.0,
          783.0,
          783.0,
          783.0,
          782.0,
          786.0,
          784.0,
          784.0,
          785.0,
          784.0,
          785.0,
          785.0,
          784.0,
          784.0,
          783.0,
          784.0,
          783.0,
          785.0,
          783.0,
          784.0,
          784.0,
          784.0,
          784.0,
          784.0,
          786.0,
          782.0,
          783.0,
          784.0,
          783.0,
          786.0,
          785.0,
          786.0,
          785.0,
          786.0,
          783.0,
          784.0,
          784.0,
          785.0,
          786.0,
          785.0,
          787.0,
          786.0,
          785.0,
          785.0,
          785.0,
          785.0,
          785.0,
          784.0,
          785.0,
          786.0,
          785.0,
          787.0,
          786.0,
          786.0,
          787.0,
          786.0,
          786.0,
          789.0,
          787.0,
          783.0,
          783.0,
          781.0,
          776.0,
          784.0,
          781.0,
          782.0,
          786.0,
          787.0,
          787.0,
          787.0,
          785.0,
          786.0,
          785.0,
          786.0,
          787.0,
          786.0,
          787.0,
          789.0,
          787.0,
          787.0,
          786.0,
          787.0,
          786.0,
          788.0,
          784.0,
          786.0,
          788.0,
          787.0,
          787.0,
          786.0,
          788.0,
          790.0,
          790.0,
          789.0,
          788.0,
          788.0,
          788.0,
          789.0
        ],
        "WindowWidth": [
          1672.0,
          1666.0,
          1665.0,
          1670.0,
          1671.0,
          1662.0,
          1666.0,
          1663.0,
          1660.0,
          1670.0,
          1663.0,
          1667.0,
          1668.0,
          1667.0,
          1667.0,
          1666.0,
          1664.0,
          1665.0,
          1668.0,
          1674.0,
          1670.0,
          1671.0,
          1661.0,
          1675.0,
          1667.0,
          1670.0,
          1665.0,
          1666.0,
          1669.0,
          1667.0,
          1664.0,
          1674.0,
          1668.0,
          1668.0,
          1671.0,
          1669.0,
          1672.0,
          1672.0,
          1670.0,
          1671.0,
          1667.0,
          1670.0,
          1668.0,
          1671.0,
          1667.0,
          1670.0,
          1669.0,
          1669.0,
          1671.0,
          1671.0,
          1673.0,
          1665.0,
          1665.0,
          1669.0,
          1666.0,
          1677.0,
          1672.0,
          1674.0,
          1673.0,
          1674.0,
          1666.0,
          1670.0,
          1671.0,
          1671.0,
          1675.0,
          1673.0,
          1676.0,
          1675.0,
          1672.0,
          1671.0,
          1673.0,
          1672.0,
          1672.0,
          1670.0,
          1673.0,
          1674.0,
          1673.0,
          1679.0,
          1674.0,
          1677.0,
          1677.0,
          1673.0,
          1674.0,
          1681.0,
          1679.0,
          1668.0,
          1671.0,
          1661.0,
          1646.0,
          1672.0,
          1660.0,
          1665.0,
          1675.0,
          1680.0,
          1678.0,
          1677.0,
          1672.0,
          1674.0,
          1674.0,
          1674.0,
          1676.0,
          1675.0,
          1678.0,
          1683.0,
          1677.0,
          1677.0,
          1674.0,
          1679.0,
          1677.0,
          1680.0,
          1669.0,
          1678.0,
          1682.0,
          1678.0,
          1679.0,
          1676.0,
          1682.0,
          1685.0,
          1686.0,
          1682.0,
          1681.0,
          1679.0,
          1680.0,
          1682.0
        ]
      },
      "slices": {}
    }
  },
  "dummy_trs": 0,
  "dvars_nstd": 37.780544412764236,
  "dvars_std": 1.3077575804065038,
  "dvars_vstd": 1.0706704826829267,
  "efc": 0.5590184093042238,
  "fber": 1690.8546142578125,
  "fd_mean": 0.49645323344724707,
  "fd_num": 96,
  "fd_perc": 77.41935483870968,
  "fwhm_avg": 1.659638391240511,
  "fwhm_x": 1.5768266666666666,
  "fwhm_y": 1.8652733333333333,
  "fwhm_z": 1.5368151737215328,
  "gcor": 0.050954,
  "gsr_x": -0.005493564996868372,
  "gsr_y": 0.03497689589858055,
  "provenance": {
    "md5sum": "169961852c17fe304d4da32fd9e6bdb0",
    "settings": {
      "fd_thres": 0.2,
      "testing": false
    },
    "software": "mriqc",
    "version": "22.0.1",
    "webapi_port": null,
    "webapi_url": "https://mriqc.nimh.nih.gov/api/v1"
  },
  "size_t": 124,
  "size_x": 64,
  "size_y": 64,
  "size_z": 34,
  "snr": 7.263657023419179,
  "spacing_tr": 2.3399999141693115,
  "spacing_x": 3.0,
  "spacing_y": 3.0,
  "spacing_z": 3.299999952316284,
  "summary_bg_k": 97.57772068296651,
  "summary_bg_mad": 8.572787174893552,
  "summary_bg_mean": 34.33481979370117,
  "summary_bg_median": 21.782257080078125,
  "summary_bg_n": 74609.0,
  "summary_bg_p05": 12.370966911315918,
  "summary_bg_p95": 87.22902984619077,
  "summary_bg_stdv": 50.14200210571289,
  "summary_fg_k": 2.8680004249401705,
  "summary_fg_mad": 120.07874441483136,
  "summary_fg_mean": 917.5078125,
  "summary_fg_median": 916.1209106445312,
  "summary_fg_n": 32455.0,
  "summary_fg_p05": 730.530615234375,
  "summary_fg_p95": 1107.870166015625,
  "summary_fg_stdv": 126.12197875976562,
  "tsnr": 49.07301605353132
}