{
  "aor": 0.005880859375,
  "aqi": 0.020486387578125,
  "bids_meta": {
    "AcquisitionMatrixPE": 64,
    "AcquisitionNumber": 1,
    "AcquisitionTime": "09:10:33.967500",
    "BandwidthPerPixelPhaseEncode": 24.038,
    "BaseResolution": 64,
    "BodyPartExamined": "HEAD",
    "ConsistencyInfo": "N4_VD13A_LATEST_20120616",
    "ConversionSoftware": "dcm2niix",
    "ConversionSoftwareVersion": "v1.0.20181125  GCC6.3.0",
    "DerivedVendorReportedEchoSpacing": 0.000650012,
    "DeviceSerialNumber": "45250",
    "DwellTime": 4.6e-06,
    "EchoTime": 0.033,
    "EchoTrainLength": 64,
    "EffectiveEchoSpacing": 0.000650012,
    "FlipAngle": 90,
    "ImageOrientationPatientDICOM": [
      0.999188,
      0.0351836,
      -0.0196144,
      -0.0383849,
      0.979296,
      -0.198763
    ],
    "ImageType": [
      "ORIGINAL",
      "PRIMARY",
      "M",
      "ND",
      "NORM",
      "MOSAIC"
    ],
    "ImagingFrequency": 123.214,
    "InPlanePhaseEncodingDirectionDICOM": "COL",
    "InstitutionAddress": "Kopernikusstr._26_Graz_Graz_AT_8010",
    "InstitutionName": "KFU",
    "InstitutionalDepartmentName": "Department",
    "MRAcquisitionType": "2D",
    "MagneticFieldStrength": 3,
    "Manufacturer": "Siemens",
    "ManufacturersModelName": "Skyra",
    "Modality": "MR",
    "PartialFourier": 1,
    "PatientPosition": "HFS",
    "PercentPhaseFOV": 100,
    "PhaseEncodingDirection": "j-",
    "PhaseEncodingSteps": 64,
    "PhaseResolution": 1,
    "PixelBandwidth": 1700,
    "ProcedureStepDescription": "KFU_Entw-Psy",
    "ProtocolName": "fMRI_1",
    "PulseSequenceDetails": "%SiemensSeq%_ep2d_pace",
    "ReceiveCoilActiveElements": "HE1-4",
    "ReceiveCoilName": "HeadNeck_20",
    "ReconMatrixPE": 64,
    "RepetitionTime": 2.34,
    "SAR": 0.170546,
    "ScanOptions": "FS",
    "ScanningSequence": "EP",
    "SequenceName": "_epfid2d1_64",
    "SequenceVariant": "SK",
    "SeriesDescription": "fMRI_1",
    "SeriesNumber": 2,
    "ShimSetting": [
      -1516,
      -3609,
      -4269,
      421,
      544,
      328,
      26,
      -225
    ],
    "SliceThickness": 3,
    "SliceTiming": [
      2.25,
      2.1825,
      2.115,
      2.045,
      1.9775,
      1.91,
      1.84,
      1.7725,
      1.705,
      1.6375,
      1.5675,
      1.5,
      1.4325,
      1.3625,
      1.295,
      1.2275,
      1.1575,
      1.09,
      1.0225,
      0.955,
      0.885,
      0.8175,
      0.75,
      0.68,
      0.6125,
      0.545,
      0.4775,
      0.4075,
      0.34,
      0.2725,
      0.2025,
      0.135,
      0.0675,
      0
    ],
    "SoftwareVersions": "syngo_MR_D13",
    "SpacingBetweenSlices": 3.3,
    "StationName": "FBMTMR1",
    "TaskName": "read",
    "TotalReadoutTime": 0.0409508,
    "TxRefAmp": 349.538,
    "dataset": "ds003126",
    "dcmmeta_affine": [
      [
        -2.9975650310516357,
        -0.11515483260154724,
        -0.04030994325876236,
        97.40487670898438
      ],
      [
        -0.1055508702993393,
        2.937886953353882,
        -0.6578693389892578,
        -104.60694885253906
      ],
      [
        -0.05884329602122307,
        0.59628826379776,
        3.2335095405578613,
        -17.23881721496582
      ],
      [
        0.0,
        0.0,
        0.0,
        1.0
      ]
    ],
    "dcmmeta_reorient_transform": [
      [
        0.0,
        -1.0,
        0.0,
        63.0
      ],
      [
        1.0,
        0.0,
        0.0,
        0.0
      ],
      [
        0.0,
        0.0,
        1.0,
        0.0
      ],
      [
        0.0,
        0.0,
        0.0,
        1.0
      ]
    ],
    "dcmmeta_shape": [
      64,
      64,
      34,
      128
    ],
    "dcmmeta_slice_dim": 2,
    "dcmmeta_version": 0.6,
    "global": {
      "const": {
        "AcquisitionMatrix": [
          64,
          0,
          0,
          64
        ],
        "AngioFlag": "N",
        "BitsAllocated": 16,
        "BitsStored": 12,
        "BodyPartExamined": "HEAD",
        "Columns": 384,
        "EchoNumbers": 1,
        "EchoTime": 33.0,
        "EchoTrainLength": 64,
        "FlipAngle": 90.0,
        "HighBit": 11,
        "ImageOrientationPatient": [
          0.99918836393593,
          0.03518362420234,
          -0.0196144325188,
          -0.0383849432786,
          0.97929564626146,
          -0.198762756428
        ],
        "ImagePositionPatient": [
          -551.33576396816,
          -567.4299760164,
          125.14839444267
        ],
        "ImageType": [
          "ORIGINAL",
          "PRIMARY",
          "M",
          "ND",
          "NORM",
          "MOSAIC"
        ],
        "ImagedNucleus": "1H",
        "ImagingFrequency": 123.214404,
        "InPlanePhaseEncodingDirection": "COL",
        "MRAcquisitionType": "2D",
        "MagneticFieldStrength": 3.0,
        "Manufacturer": "SIEMENS",
        "ManufacturerModelName": "Skyra",
        "Modality": "MR",
        "NumberOfAverages": 1.0,
        "NumberOfPhaseEncodingSteps": 64,
        "PercentPhaseFieldOfView": 100.0,
        "PercentSampling": 100.0,
        "PerformedProcedureStepStartTime": "090758.784000",
        "PhotometricInterpretation": "MONOCHROME2",
        "PixelBandwidth": 1700.0,
        "PixelRepresentation": 0,
        "PixelSpacing": [
          3.0,
          3.0
        ],
        "ProtocolName": "fMRI_1",
        "RepetitionTime": 2340.0,
        "Rows": 384,
        "SAR": 0.1705455785325,
        "SamplesPerPixel": 1,
        "ScanOptions": "FS",
        "ScanningSequence": "EP",
        "SequenceName": "*epfid2d1_64",
        "SequenceVariant": "SK",
        "SeriesDescription": "fMRI_1",
        "SeriesNumber": 2,
        "SeriesTime": "091122.771000",
        "SliceLocation": 2.7725571377188,
        "SliceThickness": 3.0,
        "SmallestImagePixelValue": 0,
        "SoftwareVersions": "syngo MR D13",
        "SpacingBetweenSlices": 3.3000000784568,
        "SpecificCharacterSet": "ISO_IR 100",
        "StudyID": "1",
        "StudyTime": "090758.737000",
        "TransmitCoilName": "Body",
        "VariableFlipAngleFlag": "N",
        "WindowCenterWidthExplanation": "Algo1",
        "dBdt": 0.0
      },
      "slices": {}
    },
    "modality": "bold",
    "run_id": 1,
    "session_id": "2",
    "subject_id": "047EPKL014024",
    "task_id": "read",
    "time": {
      "samples": {
        "AcquisitionNumber": [
          1,
          2,
          3,
          4,
          5,
          6,
          7,
          8,
          9,
          10,
          11,
          12,
          13,
          14,
          15,
          16,
          17,
          18,
          19,
          20,
          21,
          22,
          23,
          24,
          25,
          26,
          27,
          28,
          29,
          30,
          31,
          32,
          33,
          34,
          35,
          36,
          37,
          38,
          39,
          40,
          41,
          42,
          43,
          44,
          45,
          46,
          47,
          48,
          49,
          50,
          51,
          52,
          53,
          54,
          55,
          56,
          57,
          58,
          59,
          60,
          61,
          62,
          63,
          64,
          65,
          66,
          67,
          68,
          69,
          70,
          71,
          72,
          73,
          74,
          75,
          76,
          77,
          78,
          79,
          80,
          81,
          82,
          83,
          84,
          85,
          86,
          87,
          88,
          89,
          90,
          91,
          92,
          93,
          94,
          95,
          96,
          97,
          98,
          99,
          100,
          101,
          102,
          103,
          104,
          105,
          106,
          107,
          108,
          109,
          110,
          111,
          112,
          113,
          114,
          115,
          116,
          117,
          118,
          119,
          120,
          121,
          122,
          123,
          124,
          125,
          126,
          127,
          128
        ],
        "AcquisitionTime": [
          "091033.967500",
          "091036.307500",
          "091038.647500",
          "091040.987500",
          "091043.327500",
          "091045.667500",
          "091048.007500",
          "091050.347500",
          "091052.687500",
          "091055.027500",
          "091057.367500",
          "091059.707500",
          "091102.047500",
          "091104.387500",
          "091106.727500",
          "091109.067500",
          "091111.407500",
          "091113.747500",
          "091116.087500",
          "091118.427500",
          "091120.767500",
          "091123.107500",
          "091125.447500",
          "091127.787500",
          "091130.127500",
          "091132.467500",
          "091134.807500",
          "091137.147500",
          "091139.487500",
          "091141.827500",
          "091144.167500",
          "091146.507500",
          "091148.847500",
          "091151.187500",
          "091153.527500",
          "091155.867500",
          "091158.207500",
          "091200.547500",
          "091202.887500",
          "091205.227500",
          "091207.567500",
          "091209.907500",
          "091212.247500",
          "091214.587500",
          "091216.927500",
          "091219.267500",
          "091221.607500",
          "091223.947500",
          "091226.287500",
          "091228.627500",
          "091230.967500",
          "091233.307500",
          "091235.647500",
          "091237.987500",
          "091240.327500",
          "091242.667500",
          "091245.007500",
          "091247.347500",
          "091249.687500",
          "091252.027500",
          "091254.367500",
          "091256.707500",
          "091259.047500",
          "091301.387500",
          "091303.727500",
          "091306.067500",
          "091308.407500",
          "091310.747500",
          "091313.087500",
          "091315.427500",
          "091317.767500",
          "091320.107500",
          "091322.447500",
          "091324.787500",
          "091327.127500",
          "091329.467500",
          "091331.807500",
          "091334.147500",
          "091336.487500",
          "091338.827500",
          "091341.167500",
          "091343.507500",
          "091345.847500",
          "091348.187500",
          "091350.527500",
          "091352.867500",
          "091355.207500",
          "091357.547500",
          "091359.887500",
          "091402.227500",
          "091404.567500",
          "091406.907500",
          "091409.247500",
          "091411.587500",
          "091413.927500",
          "091416.267500",
          "091418.607500",
          "091420.947500",
          "091423.287500",
          "091425.627500",
          "091427.967500",
          "091430.307500",
          "091432.647500",
          "091434.987500",
          "091437.327500",
          "091439.667500",
          "091442.007500",
          "091444.347500",
          "091446.687500",
          "091449.027500",
          "091451.367500",
          "091453.707500",
          "091456.047500",
          "091458.387500",
          "091500.727500",
          "091503.067500",
          "091505.407500",
          "091507.747500",
          "091510.087500",
          "091512.427500",
          "091514.767500",
          "091517.107500",
          "091519.447500",
          "091521.787500",
          "091524.127500",
          "091526.467500",
          "091528.807500",
          "091531.147500"
        ],
        "ContentTime": [
          "091122.776000",
          "091122.780000",
          "091122.782000",
          "091122.785000",
          "091122.788000",
          "091122.791000",
          "091122.794000",
          "091122.796000",
          "091122.804000",
          "091122.807000",
          "091122.810000",
          "091122.812000",
          "091122.818000",
          "091122.820000",
          "091122.823000",
          "091122.826000",
          "091122.829000",
          "091122.831000",
          "091122.834000",
          "091122.838000",
          "091122.841000",
          "091222.770000",
          "091222.773000",
          "091222.776000",
          "091222.779000",
          "091222.782000",
          "091222.784000",
          "091222.787000",
          "091222.789000",
          "091222.792000",
          "091222.795000",
          "091222.797000",
          "091222.800000",
          "091222.803000",
          "091222.806000",
          "091222.809000",
          "091222.812000",
          "091222.815000",
          "091222.818000",
          "091222.820000",
          "091222.823000",
          "091222.826000",
          "091222.834000",
          "091222.837000",
          "091222.839000",
          "091222.842000",
          "091222.845000",
          "091322.770000",
          "091322.773000",
          "091322.776000",
          "091322.779000",
          "091322.787000",
          "091322.790000",
          "091322.793000",
          "091322.796000",
          "091322.799000",
          "091322.801000",
          "091322.804000",
          "091322.806000",
          "091322.809000",
          "091322.812000",
          "091322.814000",
          "091322.817000",
          "091322.820000",
          "091322.822000",
          "091322.825000",
          "091322.828000",
          "091322.830000",
          "091322.833000",
          "091322.836000",
          "091322.838000",
          "091322.841000",
          "091422.770000",
          "091422.774000",
          "091422.781000",
          "091422.784000",
          "091422.787000",
          "091422.789000",
          "091422.792000",
          "091422.795000",
          "091422.798000",
          "091422.800000",
          "091422.803000",
          "091422.806000",
          "091422.809000",
          "091422.811000",
          "091422.814000",
          "091422.817000",
          "091422.820000",
          "091422.823000",
          "091422.826000",
          "091422.829000",
          "091422.832000",
          "091422.835000",
          "091422.838000",
          "091422.840000",
          "091422.843000",
          "091422.845000",
          "091522.770000",
          "091522.774000",
          "091522.777000",
          "091522.779000",
          "091522.782000",
          "091522.784000",
          "091522.787000",
          "091522.790000",
          "091522.792000",
          "091522.795000",
          "091522.798000",
          "091522.801000",
          "091522.803000",
          "091522.806000",
          "091522.809000",
          "091522.811000",
          "091522.814000",
          "091522.817000",
          "091522.820000",
          "091522.823000",
          "091522.826000",
          "091522.828000",
          "091522.831000",
          "091522.834000",
          "091522.836000",
          "091522.839000",
          "091534.101000",
          "091534.104000",
          "091534.107000",
          "091534.110000"
        ],
        "InstanceCreationTime": [
          "091122.776000",
          "091122.780000",
          "091122.782000",
          "091122.785000",
          "091122.788000",
          "091122.791000",
          "091122.794000",
          "091122.796000",
          "091122.804000",
          "091122.807000",
          "091122.810000",
          "091122.812000",
          "091122.818000",
          "091122.820000",
          "091122.823000",
          "091122.826000",
          "091122.829000",
          "091122.831000",
          "091122.834000",
          "091122.838000",
          "091122.841000",
          "091222.770000",
          "091222.773000",
          "091222.776000",
          "091222.779000",
          "091222.782000",
          "091222.784000",
          "091222.787000",
          "091222.789000",
          "091222.792000",
          "091222.795000",
          "091222.797000",
          "091222.800000",
          "091222.803000",
          "091222.806000",
          "091222.809000",
          "091222.812000",
          "091222.815000",
          "091222.818000",
          "091222.820000",
          "091222.823000",
          "091222.826000",
          "091222.834000",
          "091222.837000",
          "091222.839000",
          "091222.842000",
          "091222.845000",
          "091322.770000",
          "091322.773000",
          "091322.776000",
          "091322.779000",
          "091322.787000",
          "091322.790000",
          "091322.793000",
          "091322.796000",
          "091322.799000",
          "091322.801000",
          "091322.804000",
          "091322.806000",
          "091322.809000",
          "091322.812000",
          "091322.814000",
          "091322.817000",
          "091322.820000",
          "091322.822000",
          "091322.825000",
          "091322.828000",
          "091322.830000",
          "091322.833000",
          "091322.836000",
          "091322.838000",
          "091322.841000",
          "091422.770000",
          "091422.774000",
          "091422.781000",
          "091422.784000",
          "091422.787000",
          "091422.789000",
          "091422.792000",
          "091422.795000",
          "091422.798000",
          "091422.800000",
          "091422.803000",
          "091422.806000",
          "091422.809000",
          "091422.811000",
          "091422.814000",
          "091422.817000",
          "091422.820000",
          "091422.823000",
          "091422.826000",
          "091422.829000",
          "091422.832000",
          "091422.835000",
          "091422.838000",
          "091422.840000",
          "091422.843000",
          "091422.845000",
          "091522.770000",
          "091522.774000",
          "091522.777000",
          "091522.779000",
          "091522.782000",
          "091522.784000",
          "091522.787000",
          "091522.790000",
          "091522.792000",
          "091522.795000",
          "091522.798000",
          "091522.801000",
          "091522.803000",
          "091522.806000",
          "091522.809000",
          "091522.811000",
          "091522.814000",
          "091522.817000",
          "091522.820000",
          "091522.823000",
          "091522.826000",
          "091522.828000",
          "091522.831000",
          "091522.834000",
          "091522.836000",
          "091522.839000",
          "091534.101000",
          "091534.104000",
          "091534.107000",
          "091534.110000"
        ],
        "InstanceNumber": [
          1,
          2,
          3,
          4,
          5,
          6,
          7,
          8,
          9,
          10,
          11,
          12,
          13,
          14,
          15,
          16,
          17,
          18,
          19,
          20,
          21,
          22,
          23,
          24,
          25,
          26,
          27,
          28,
          29,
          30,
          31,
          32,
          33,
          34,
          35,
          36,
          37,
          38,
          39,
          40,
          41,
          42,
          43,
          44,
          45,
          46,
          47,
          48,
          49,
          50,
          51,
          52,
          53,
          54,
          55,
          56,
          57,
          58,
          59,
          60,
          61,
          62,
          63,
          64,
          65,
          66,
          67,
          68,
          69,
          70,
          71,
          72,
          73,
          74,
          75,
          76,
          77,
          78,
          79,
          80,
          81,
          82,
          83,
          84,
          85,
          86,
          87,
          88,
          89,
          90,
          91,
          92,
          93,
          94,
          95,
          96,
          97,
          98,
          99,
          100,
          101,
          102,
          103,
          104,
          105,
          106,
          107,
          108,
          109,
          110,
          111,
          112,
          113,
          114,
          115,
          116,
          117,
          118,
          119,
          120,
          121,
          122,
          123,
          124,
          125,
          126,
          127,
          128
        ],
        "LargestImagePixelValue": [
          2054,
          1847,
          1847,
          2368,
          2308,
          1832,
          2100,
          1843,
          2033,
          1966,
          1894,
          2178,
          1795,
          1834,
          2148,
          2278,
          2717,
          2409,
          2187,
          1785,
          2310,
          2683,
          1781,
          1819,
          2114,
          1814,
          1936,
          2090,
          1831,
          1885,
          1866,
          2194,
          1959,
          1868,
          2462,
          1789,
          1866,
          2094,
          1953,
          1902,
          2224,
          1778,
          2153,
          1954,
          1793,
          1863,
          1898,
          1933,
          2493,
          2214,
          1825,
          1774,
          1948,
          1823,
          1901,
          2135,
          2187,
          2028,
          2655,
          2525,
          1769,
          1862,
          1801,
          1754,
          2053,
          2678,
          1805,
          2688,
          2756,
          1771,
          1911,
          1805,
          1894,
          1819,
          2122,
          1800,
          2048,
          2558,
          1833,
          2054,
          1872,
          1895,
          1892,
          1978,
          2644,
          2338,
          2631,
          1818,
          1906,
          1830,
          2473,
          2596,
          1879,
          1889,
          2161,
          2246,
          1929,
          1791,
          2174,
          2563,
          2783,
          1898,
          1977,
          1947,
          1803,
          2656,
          1926,
          1868,
          1868,
          2198,
          1824,
          2171,
          1805,
          1884,
          2269,
          2133,
          2036,
          1962,
          2031,
          2544,
          1834,
          1785,
          2512,
          2454,
          1903,
          1929,
          2359,
          2695
        ],
        "WindowCenter": [
          843.0,
          841.0,
          841.0,
          842.0,
          842.0,
          839.0,
          840.0,
          840.0,
          841.0,
          841.0,
          841.0,
          844.0,
          842.0,
          845.0,
          842.0,
          846.0,
          842.0,
          841.0,
          841.0,
          841.0,
          840.0,
          840.0,
          837.0,
          840.0,
          840.0,
          841.0,
          841.0,
          841.0,
          842.0,
          841.0,
          841.0,
          842.0,
          839.0,
          839.0,
          841.0,
          841.0,
          838.0,
          842.0,
          843.0,
          841.0,
          842.0,
          841.0,
          841.0,
          844.0,
          842.0,
          844.0,
          843.0,
          842.0,
          842.0,
          841.0,
          840.0,
          840.0,
          842.0,
          842.0,
          841.0,
          845.0,
          843.0,
          845.0,
          842.0,
          840.0,
          839.0,
          844.0,
          845.0,
          844.0,
          845.0,
          845.0,
          841.0,
          843.0,
          840.0,
          838.0,
          842.0,
          840.0,
          838.0,
          841.0,
          844.0,
          844.0,
          843.0,
          843.0,
          838.0,
          841.0,
          842.0,
          842.0,
          844.0,
          845.0,
          845.0,
          845.0,
          843.0,
          842.0,
          844.0,
          842.0,
          843.0,
          842.0,
          842.0,
          844.0,
          844.0,
          843.0,
          844.0,
          844.0,
          846.0,
          844.0,
          840.0,
          842.0,
          842.0,
          842.0,
          841.0,
          844.0,
          842.0,
          844.0,
          844.0,
          845.0,
          844.0,
          845.0,
          843.0,
          844.0,
          845.0,
          844.0,
          844.0,
          846.0,
          846.0,
          844.0,
          842.0,
          844.0,
          846.0,
          845.0,
          844.0,
          848.0,
          843.0,
          842.0
        ],
        "WindowWidth": [
          1778.0,
          1773.0,
          1774.0,
          1776.0,
          1778.0,
          1769.0,
          1771.0,
          1769.0,
          1774.0,
          1775.0,
          1774.0,
          1783.0,
          1774.0,
          1784.0,
          1779.0,
          1787.0,
          1778.0,
          1775.0,
          1774.0,
          1772.0,
          1773.0,
          1771.0,
          1763.0,
          1772.0,
          1772.0,
          1774.0,
          1774.0,
          1774.0,
          1775.0,
          1773.0,
          1775.0,
          1778.0,
          1770.0,
          1770.0,
          1775.0,
          1775.0,
          1768.0,
          1777.0,
          1779.0,
          1774.0,
          1777.0,
          1774.0,
          1776.0,
          1783.0,
          1778.0,
          1781.0,
          1779.0,
          1776.0,
          1778.0,
          1776.0,
          1771.0,
          1772.0,
          1779.0,
          1777.0,
          1776.0,
          1787.0,
          1778.0,
          1784.0,
          1778.0,
          1772.0,
          1769.0,
          1783.0,
          1785.0,
          1781.0,
          1784.0,
          1789.0,
          1774.0,
          1782.0,
          1775.0,
          1768.0,
          1779.0,
          1773.0,
          1768.0,
          1777.0,
          1783.0,
          1783.0,
          1779.0,
          1781.0,
          1767.0,
          1777.0,
          1779.0,
          1780.0,
          1784.0,
          1787.0,
          1787.0,
          1786.0,
          1782.0,
          1778.0,
          1782.0,
          1779.0,
          1781.0,
          1780.0,
          1778.0,
          1783.0,
          1783.0,
          1782.0,
          1783.0,
          1786.0,
          1790.0,
          1783.0,
          1776.0,
          1779.0,
          1779.0,
          1778.0,
          1776.0,
          1784.0,
          1778.0,
          1783.0,
          1783.0,
          1785.0,
          1782.0,
          1785.0,
          1780.0,
          1785.0,
          1788.0,
          1784.0,
          1783.0,
          1789.0,
          1790.0,
          1787.0,
          1779.0,
          1783.0,
          1791.0,
          1787.0,
          1783.0,
          1795.0,
          1784.0,
          1780.0
        ]
      },
      "slices": {}
    }
  },
  "dummy_trs": 0,
  "dvars_nstd": 42.95810830125982,
  "dvars_std": 1.2631741706299218,
  "dvars_vstd": 1.0420664753543307,
  "efc": 0.5957205711502587,
  "fber": 1612.1192626953125,
  "fd_mean": 0.6701049932282478,
  "fd_num": 114,
  "fd_perc": 89.0625,
  "fwhm_avg": 1.6609877480353425,
  "fwhm_x": 1.55356,
  "fwhm_y": 1.8856366666666666,
  "fwhm_z": 1.5437665774393614,
  "gcor": 0.0307036,
  "gsr_x": -0.010019534267485142,
  "gsr_y": 0.047334399074316025,
  "provenance": {
    "md5sum": "72a24adfcde3a826f4ecac40db85a5ba",
    "settings": {
      "fd_thres": 0.2,
      "testing": false
    },
    "software": "mriqc",
    "version": "22.0.1",
    "webapi_port": null,
    "webapi_url": "https://mriqc.nimh.nih.gov/api/v1"
  },
  "size_t": 128,
  "size_x": 64,
  "size_y": 64,
  "size_z": 34,
  "snr": 7.014874506563883,
  "spacing_tr": 2.3399999141693115,
  "spacing_x": 3.0,
  "spacing_y": 3.0,
  "spacing_z": 3.3000001907348633,
  "summary_bg_k": 50.126292022886226,
  "summary_bg_mad": 9.521086121965663,
  "summary_bg_mean": 37.98550033569336,
  "summary_bg_median": 23.2578125,
  "summary_bg_n": 67730.0,
  "summary_bg_p05": 13.261328125000002,
  "summary_bg_p95": 109.87148437499997,
  "summary_bg_stdv": 51.387760162353516,
  "summary_fg_k": 2.4496639427381783,
  "summary_fg_mad": 134.65039679787205,
  "summary_fg_mean": 966.9024047851562,
  "summary_fg_median": 964.3671875,
  "summary_fg_n": 37693.0,
  "summary_fg_p05": 768.4578125,
  "summary_fg_p95": 1178.1375,
  "summary_fg_stdv": 137.47279357910156,
  "tsnr": 45.23881819611415
}