{
  "aor": 0.005418984375,
  "aqi": 0.01841481609375,
  "bids_meta": {
    "AcquisitionMatrixPE": 64,
    "AcquisitionNumber": 1,
    "AcquisitionTime": "14:33:26.060000",
    "BandwidthPerPixelPhaseEncode": 24.038,
    "BaseResolution": 64,
    "BodyPartExamined": "HEAD",
    "ConsistencyInfo": "N4_VD13A_LATEST_20120616",
    "ConversionSoftware": "dcm2niix",
    "ConversionSoftwareVersion": "v1.0.20181125  GCC6.3.0",
    "DerivedVendorReportedEchoSpacing": 0.000650012,
    "DeviceSerialNumber": "45250",
    "DwellTime": 4.6e-06,
    "EchoTime": 0.033,
    "EchoTrainLength": 64,
    "EffectiveEchoSpacing": 0.000650012,
    "FlipAngle": 90,
    "ImageOrientationPatientDICOM": [
      0.999919,
      -0.00683485,
      -0.0107087,
      0.00349035,
      0.958304,
      -0.285729
    ],
    "ImageType": [
      "ORIGINAL",
      "PRIMARY",
      "M",
      "ND",
      "NORM",
      "MOSAIC"
    ],
    "ImagingFrequency": 123.22,
    "InPlanePhaseEncodingDirectionDICOM": "COL",
    "InstitutionAddress": "Kopernikusstr._26_Graz_Graz_AT_8010",
    "InstitutionName": "KFU",
    "InstitutionalDepartmentName": "Department",
    "MRAcquisitionType": "2D",
    "MagneticFieldStrength": 3,
    "Manufacturer": "Siemens",
    "ManufacturersModelName": "Skyra",
    "Modality": "MR",
    "PartialFourier": 1,
    "PatientPosition": "HFS",
    "PercentPhaseFOV": 100,
    "PhaseEncodingDirection": "j-",
    "PhaseEncodingSteps": 64,
    "PhaseResolution": 1,
    "PixelBandwidth": 1700,
    "ProcedureStepDescription": "KFU_Entw-Psy",
    "ProtocolName": "fMRI_3",
    "PulseSequenceDetails": "%SiemensSeq%_ep2d_pace",
    "ReceiveCoilActiveElements": "HE1-4",
    "ReceiveCoilName": "HeadNeck_20",
    "ReconMatrixPE": 64,
    "RepetitionTime": 2.34,
    "SAR": 0.192823,
    "ScanOptions": "FS",
    "ScanningSequence": "EP",
    "SequenceName": "_epfid2d1_64",
    "SequenceVariant": "SK",
    "SeriesDescription": "fMRI_3",
    "SeriesNumber": 12,
    "ShimSetting": [
      -1715,
      -3719,
      -4217,
      562,
      320,
      230,
      596,
      -274
    ],
    "SliceThickness": 3,
    "SliceTiming": [
      2.2525,
      2.1825,
      2.115,
      2.0475,
      1.98,
      1.91,
      1.8425,
      1.775,
      1.705,
      1.6375,
      1.57,
      1.5,
      1.4325,
      1.365,
      1.2975,
      1.2275,
      1.16,
      1.0925,
      1.0225,
      0.955,
      0.8875,
      0.82,
      0.75,
      0.6825,
      0.615,
      0.545,
      0.4775,
      0.41,
      0.3425,
      0.2725,
      0.205,
      0.1375,
      0.0675,
      0
    ],
    "SoftwareVersions": "syngo_MR_D13",
    "SpacingBetweenSlices": 3.3,
    "StationName": "FBMTMR1",
    "TaskName": "read",
    "TotalReadoutTime": 0.0409508,
    "TxRefAmp": 344.222,
    "dataset": "ds003126",
    "dcmmeta_affine": [
      [
        -2.999758005142212,
        0.010471049696207047,
        -0.04030994698405266,
        106.1636734008789
      ],
      [
        0.020504537969827652,
        2.8749125003814697,
        -0.9427053928375244,
        -100.78553009033203
      ],
      [
        -0.032126203179359436,
        0.8571861982345581,
        3.162227153778076,
        -27.61503791809082
      ],
      [
        0.0,
        0.0,
        0.0,
        1.0
      ]
    ],
    "dcmmeta_reorient_transform": [
      [
        0.0,
        -1.0,
        0.0,
        63.0
      ],
      [
        1.0,
        0.0,
        0.0,
        0.0
      ],
      [
        0.0,
        0.0,
        1.0,
        0.0
      ],
      [
        0.0,
        0.0,
        0.0,
        1.0
      ]
    ],
    "dcmmeta_shape": [
      64,
      64,
      34,
      128
    ],
    "dcmmeta_slice_dim": 2,
    "dcmmeta_version": 0.6,
    "global": {
      "const": {
        "AcquisitionMatrix": [
          64,
          0,
          0,
          64
        ],
        "AngioFlag": "N",
        "BitsAllocated": 16,
        "BitsStored": 12,
        "BodyPartExamined": "HEAD",
        "Columns": 384,
        "EchoNumbers": 1,
        "EchoTime": 33.0,
        "EchoTrainLength": 64,
        "FlipAngle": 90.0,
        "HighBit": 11,
        "ImageOrientationPatient": [
          0.9999193006949,
          -0.0068348458873,
          -0.0107087337964,
          0.00349035005328,
          0.95830418176433,
          -0.2857287396632
        ],
        "ImagePositionPatient": [
          -588.45998105538,
          -537.03924212827,
          168.67768055737
        ],
        "ImageType": [
          "ORIGINAL",
          "PRIMARY",
          "M",
          "ND",
          "NORM",
          "MOSAIC"
        ],
        "ImagedNucleus": "1H",
        "ImagingFrequency": 123.220103,
        "InPlanePhaseEncodingDirection": "COL",
        "MRAcquisitionType": "2D",
        "MagneticFieldStrength": 3.0,
        "Manufacturer": "SIEMENS",
        "ManufacturerModelName": "Skyra",
        "Modality": "MR",
        "NumberOfAverages": 1.0,
        "NumberOfPhaseEncodingSteps": 64,
        "PercentPhaseFieldOfView": 100.0,
        "PercentSampling": 100.0,
        "PerformedProcedureStepStartTime": "141134.705000",
        "PhotometricInterpretation": "MONOCHROME2",
        "PixelBandwidth": 1700.0,
        "PixelRepresentation": 0,
        "PixelSpacing": [
          3.0,
          3.0
        ],
        "ProtocolName": "fMRI_3",
        "RepetitionTime": 2340.0,
        "Rows": 384,
        "SAR": 0.19282310902754,
        "SamplesPerPixel": 1,
        "ScanOptions": "FS",
        "ScanningSequence": "EP",
        "SequenceName": "*epfid2d1_64",
        "SequenceVariant": "SK",
        "SeriesDescription": "fMRI_3",
        "SeriesNumber": 12,
        "SeriesTime": "143428.825000",
        "SliceLocation": 1.0322975056676,
        "SliceThickness": 3.0,
        "SmallestImagePixelValue": 0,
        "SoftwareVersions": "syngo MR D13",
        "SpacingBetweenSlices": 3.2999999217314,
        "SpecificCharacterSet": "ISO_IR 100",
        "StudyID": "1",
        "StudyTime": "141134.658000",
        "TransmitCoilName": "Body",
        "VariableFlipAngleFlag": "N",
        "WindowCenterWidthExplanation": "Algo1",
        "dBdt": 0.0
      },
      "slices": {}
    },
    "modality": "bold",
    "run_id": 3,
    "session_id": "2",
    "subject_id": "047EPKL013064",
    "task_id": "read",
    "time": {
      "samples": {
        "AcquisitionNumber": [
          1,
          2,
          3,
          4,
          5,
          6,
          7,
          8,
          9,
          10,
          11,
          12,
          13,
          14,
          15,
          16,
          17,
          18,
          19,
          20,
          21,
          22,
          23,
          24,
          25,
          26,
          27,
          28,
          29,
          30,
          31,
          32,
          33,
          34,
          35,
          36,
          37,
          38,
          39,
          40,
          41,
          42,
          43,
          44,
          45,
          46,
          47,
          48,
          49,
          50,
          51,
          52,
          53,
          54,
          55,
          56,
          57,
          58,
          59,
          60,
          61,
          62,
          63,
          64,
          65,
          66,
          67,
          68,
          69,
          70,
          71,
          72,
          73,
          74,
          75,
          76,
          77,
          78,
          79,
          80,
          81,
          82,
          83,
          84,
          85,
          86,
          87,
          88,
          89,
          90,
          91,
          92,
          93,
          94,
          95,
          96,
          97,
          98,
          99,
          100,
          101,
          102,
          103,
          104,
          105,
          106,
          107,
          108,
          109,
          110,
          111,
          112,
          113,
          114,
          115,
          116,
          117,
          118,
          119,
          120,
          121,
          122,
          123,
          124,
          125,
          126,
          127,
          128
        ],
        "AcquisitionTime": [
          "143326.060000",
          "143328.400000",
          "143330.740000",
          "143333.080000",
          "143335.420000",
          "143337.760000",
          "143340.100000",
          "143342.440000",
          "143344.780000",
          "143347.120000",
          "143349.460000",
          "143351.800000",
          "143354.140000",
          "143356.480000",
          "143358.820000",
          "143401.160000",
          "143403.500000",
          "143405.840000",
          "143408.180000",
          "143410.520000",
          "143412.860000",
          "143415.200000",
          "143417.540000",
          "143419.880000",
          "143422.220000",
          "143424.560000",
          "143426.900000",
          "143429.240000",
          "143431.580000",
          "143433.920000",
          "143436.260000",
          "143438.600000",
          "143440.940000",
          "143443.280000",
          "143445.620000",
          "143447.960000",
          "143450.300000",
          "143452.640000",
          "143454.980000",
          "143457.320000",
          "143459.660000",
          "143502.000000",
          "143504.340000",
          "143506.680000",
          "143509.020000",
          "143511.360000",
          "143513.700000",
          "143516.040000",
          "143518.380000",
          "143520.720000",
          "143523.060000",
          "143525.400000",
          "143527.740000",
          "143530.080000",
          "143532.420000",
          "143534.760000",
          "143537.100000",
          "143539.440000",
          "143541.780000",
          "143544.120000",
          "143546.460000",
          "143548.800000",
          "143551.140000",
          "143553.480000",
          "143555.820000",
          "143558.160000",
          "143600.500000",
          "143602.840000",
          "143605.180000",
          "143607.520000",
          "143609.860000",
          "143612.200000",
          "143614.540000",
          "143616.880000",
          "143619.220000",
          "143621.560000",
          "143623.900000",
          "143626.240000",
          "143628.580000",
          "143630.920000",
          "143633.260000",
          "143635.600000",
          "143637.940000",
          "143640.280000",
          "143642.620000",
          "143644.960000",
          "143647.300000",
          "143649.640000",
          "143651.980000",
          "143654.320000",
          "143656.660000",
          "143659.000000",
          "143701.340000",
          "143703.680000",
          "143706.020000",
          "143708.360000",
          "143710.700000",
          "143713.040000",
          "143715.380000",
          "143717.720000",
          "143720.060000",
          "143722.400000",
          "143724.740000",
          "143727.080000",
          "143729.420000",
          "143731.760000",
          "143734.100000",
          "143736.440000",
          "143738.780000",
          "143741.120000",
          "143743.460000",
          "143745.800000",
          "143748.140000",
          "143750.480000",
          "143752.820000",
          "143755.160000",
          "143757.500000",
          "143759.840000",
          "143802.180000",
          "143804.520000",
          "143806.860000",
          "143809.200000",
          "143811.540000",
          "143813.880000",
          "143816.220000",
          "143818.560000",
          "143820.900000",
          "143823.240000"
        ],
        "ContentTime": [
          "143428.829000",
          "143428.833000",
          "143428.836000",
          "143428.843000",
          "143428.846000",
          "143428.849000",
          "143428.851000",
          "143428.854000",
          "143428.857000",
          "143428.860000",
          "143428.862000",
          "143428.865000",
          "143428.868000",
          "143428.871000",
          "143428.874000",
          "143428.876000",
          "143428.879000",
          "143428.882000",
          "143428.885000",
          "143428.888000",
          "143428.891000",
          "143428.894000",
          "143428.897000",
          "143428.900000",
          "143428.908000",
          "143428.911000",
          "143428.913000",
          "143528.824000",
          "143528.827000",
          "143528.830000",
          "143528.833000",
          "143528.836000",
          "143528.844000",
          "143528.847000",
          "143528.850000",
          "143528.852000",
          "143528.855000",
          "143528.857000",
          "143528.860000",
          "143528.862000",
          "143528.865000",
          "143528.868000",
          "143528.870000",
          "143528.873000",
          "143528.876000",
          "143528.878000",
          "143528.881000",
          "143528.883000",
          "143528.886000",
          "143528.889000",
          "143528.892000",
          "143528.895000",
          "143528.898000",
          "143628.823000",
          "143628.826000",
          "143628.829000",
          "143628.832000",
          "143628.834000",
          "143628.837000",
          "143628.840000",
          "143628.843000",
          "143628.846000",
          "143628.849000",
          "143628.851000",
          "143628.855000",
          "143628.857000",
          "143628.867000",
          "143628.870000",
          "143628.873000",
          "143628.876000",
          "143628.879000",
          "143628.882000",
          "143628.884000",
          "143628.887000",
          "143628.890000",
          "143628.893000",
          "143628.896000",
          "143628.898000",
          "143728.823000",
          "143728.827000",
          "143728.830000",
          "143728.833000",
          "143728.835000",
          "143728.838000",
          "143728.841000",
          "143728.844000",
          "143728.847000",
          "143728.850000",
          "143728.852000",
          "143728.855000",
          "143728.858000",
          "143728.861000",
          "143728.864000",
          "143728.867000",
          "143728.869000",
          "143728.872000",
          "143728.875000",
          "143728.878000",
          "143728.893000",
          "143728.896000",
          "143728.899000",
          "143728.901000",
          "143728.904000",
          "143728.907000",
          "143808.824000",
          "143808.827000",
          "143808.830000",
          "143808.833000",
          "143808.836000",
          "143808.839000",
          "143808.842000",
          "143808.845000",
          "143808.847000",
          "143808.850000",
          "143808.853000",
          "143808.856000",
          "143808.859000",
          "143808.862000",
          "143808.864000",
          "143808.867000",
          "143808.870000",
          "143825.447000",
          "143825.450000",
          "143825.456000",
          "143825.460000",
          "143825.463000",
          "143825.466000",
          "143825.469000"
        ],
        "InstanceCreationTime": [
          "143428.829000",
          "143428.833000",
          "143428.836000",
          "143428.843000",
          "143428.846000",
          "143428.849000",
          "143428.851000",
          "143428.854000",
          "143428.857000",
          "143428.860000",
          "143428.862000",
          "143428.865000",
          "143428.868000",
          "143428.871000",
          "143428.874000",
          "143428.876000",
          "143428.879000",
          "143428.882000",
          "143428.885000",
          "143428.888000",
          "143428.891000",
          "143428.894000",
          "143428.897000",
          "143428.900000",
          "143428.908000",
          "143428.911000",
          "143428.913000",
          "143528.824000",
          "143528.827000",
          "143528.830000",
          "143528.833000",
          "143528.836000",
          "143528.844000",
          "143528.847000",
          "143528.850000",
          "143528.852000",
          "143528.855000",
          "143528.857000",
          "143528.860000",
          "143528.862000",
          "143528.865000",
          "143528.868000",
          "143528.870000",
          "143528.873000",
          "143528.876000",
          "143528.878000",
          "143528.881000",
          "143528.883000",
          "143528.886000",
          "143528.889000",
          "143528.892000",
          "143528.895000",
          "143528.898000",
          "143628.823000",
          "143628.826000",
          "143628.829000",
          "143628.832000",
          "143628.834000",
          "143628.837000",
          "143628.840000",
          "143628.843000",
          "143628.846000",
          "143628.849000",
          "143628.851000",
          "143628.855000",
          "143628.857000",
          "143628.867000",
          "143628.870000",
          "143628.873000",
          "143628.876000",
          "143628.879000",
          "143628.882000",
          "143628.884000",
          "143628.887000",
          "143628.890000",
          "143628.893000",
          "143628.896000",
          "143628.898000",
          "143728.823000",
          "143728.827000",
          "143728.830000",
          "143728.833000",
          "143728.835000",
          "143728.838000",
          "143728.841000",
          "143728.844000",
          "143728.847000",
          "143728.850000",
          "143728.852000",
          "143728.855000",
          "143728.858000",
          "143728.861000",
          "143728.864000",
          "143728.867000",
          "143728.869000",
          "143728.872000",
          "143728.875000",
          "143728.878000",
          "143728.893000",
          "143728.896000",
          "143728.899000",
          "143728.901000",
          "143728.904000",
          "143728.907000",
          "143808.824000",
          "143808.827000",
          "143808.830000",
          "143808.833000",
          "143808.836000",
          "143808.839000",
          "143808.842000",
          "143808.845000",
          "143808.847000",
          "143808.850000",
          "143808.853000",
          "143808.856000",
          "143808.859000",
          "143808.862000",
          "143808.864000",
          "143808.867000",
          "143808.870000",
          "143825.447000",
          "143825.450000",
          "143825.456000",
          "143825.460000",
          "143825.463000",
          "143825.466000",
          "143825.469000"
        ],
        "InstanceNumber": [
          1,
          2,
          3,
          4,
          5,
          6,
          7,
          8,
          9,
          10,
          11,
          12,
          13,
          14,
          15,
          16,
          17,
          18,
          19,
          20,
          21,
          22,
          23,
          24,
          25,
          26,
          27,
          28,
          29,
          30,
          31,
          32,
          33,
          34,
          35,
          36,
          37,
          38,
          39,
          40,
          41,
          42,
          43,
          44,
          45,
          46,
          47,
          48,
          49,
          50,
          51,
          52,
          53,
          54,
          55,
          56,
          57,
          58,
          59,
          60,
          61,
          62,
          63,
          64,
          65,
          66,
          67,
          68,
          69,
          70,
          71,
          72,
          73,
          74,
          75,
          76,
          77,
          78,
          79,
          80,
          81,
          82,
          83,
          84,
          85,
          86,
          87,
          88,
          89,
          90,
          91,
          92,
          93,
          94,
          95,
          96,
          97,
          98,
          99,
          100,
          101,
          102,
          103,
          104,
          105,
          106,
          107,
          108,
          109,
          110,
          111,
          112,
          113,
          114,
          115,
          116,
          117,
          118,
          119,
          120,
          121,
          122,
          123,
          124,
          125,
          126,
          127,
          128
        ],
        "LargestImagePixelValue": [
          2213,
          2275,
          2208,
          2512,
          2020,
          2258,
          2483,
          2579,
          1996,
          2310,
          3042,
          2040,
          1985,
          2086,
          2557,
          2698,
          2023,
          2000,
          2145,
          1975,
          2340,
          3174,
          1908,
          1979,
          2179,
          1817,
          2417,
          2390,
          1843,
          2275,
          1923,
          2006,
          2646,
          2469,
          2134,
          1957,
          2441,
          2264,
          2547,
          2511,
          2130,
          2118,
          2693,
          2130,
          2229,
          2027,
          2431,
          2200,
          2187,
          2122,
          2130,
          2086,
          2365,
          2097,
          2471,
          2522,
          1913,
          2474,
          1907,
          2245,
          2514,
          3028,
          1814,
          1906,
          1926,
          2300,
          2659,
          2241,
          2289,
          2271,
          1912,
          2071,
          2452,
          1848,
          2059,
          2069,
          2608,
          2226,
          2170,
          2252,
          2691,
          2327,
          2207,
          2592,
          1997,
          2441,
          2272,
          2080,
          2518,
          2103,
          2120,
          2562,
          2219,
          2348,
          2913,
          2183,
          2256,
          2308,
          1894,
          2176,
          2379,
          2447,
          2939,
          2283,
          2118,
          2430,
          2774,
          1993,
          1883,
          2624,
          2510,
          2216,
          2805,
          2475,
          2419,
          2132,
          2815,
          2140,
          2968,
          1791,
          1939,
          2362,
          2309,
          2043,
          2145,
          2515,
          2627,
          2075
        ],
        "WindowCenter": [
          803.0,
          803.0,
          804.0,
          803.0,
          805.0,
          806.0,
          807.0,
          807.0,
          803.0,
          805.0,
          804.0,
          802.0,
          803.0,
          806.0,
          805.0,
          805.0,
          800.0,
          802.0,
          803.0,
          804.0,
          805.0,
          805.0,
          800.0,
          800.0,
          801.0,
          801.0,
          805.0,
          802.0,
          801.0,
          805.0,
          804.0,
          803.0,
          804.0,
          804.0,
          801.0,
          801.0,
          802.0,
          803.0,
          803.0,
          804.0,
          802.0,
          805.0,
          804.0,
          806.0,
          801.0,
          803.0,
          801.0,
          801.0,
          803.0,
          804.0,
          803.0,
          805.0,
          806.0,
          804.0,
          805.0,
          807.0,
          805.0,
          808.0,
          807.0,
          805.0,
          807.0,
          805.0,
          802.0,
          802.0,
          802.0,
          804.0,
          804.0,
          801.0,
          801.0,
          802.0,
          800.0,
          803.0,
          804.0,
          803.0,
          806.0,
          807.0,
          806.0,
          805.0,
          808.0,
          805.0,
          805.0,
          801.0,
          798.0,
          799.0,
          797.0,
          800.0,
          801.0,
          801.0,
          804.0,
          806.0,
          806.0,
          808.0,
          807.0,
          806.0,
          804.0,
          802.0,
          802.0,
          804.0,
          804.0,
          804.0,
          807.0,
          806.0,
          804.0,
          803.0,
          802.0,
          804.0,
          804.0,
          805.0,
          805.0,
          807.0,
          808.0,
          804.0,
          807.0,
          809.0,
          806.0,
          804.0,
          805.0,
          803.0,
          803.0,
          801.0,
          802.0,
          806.0,
          804.0,
          807.0,
          807.0,
          807.0,
          804.0,
          803.0
        ],
        "WindowWidth": [
          1720.0,
          1720.0,
          1722.0,
          1721.0,
          1725.0,
          1728.0,
          1731.0,
          1729.0,
          1720.0,
          1724.0,
          1724.0,
          1717.0,
          1718.0,
          1728.0,
          1726.0,
          1724.0,
          1710.0,
          1718.0,
          1719.0,
          1720.0,
          1726.0,
          1726.0,
          1708.0,
          1711.0,
          1716.0,
          1715.0,
          1723.0,
          1720.0,
          1713.0,
          1724.0,
          1721.0,
          1721.0,
          1724.0,
          1722.0,
          1714.0,
          1712.0,
          1717.0,
          1719.0,
          1721.0,
          1722.0,
          1716.0,
          1723.0,
          1727.0,
          1726.0,
          1712.0,
          1718.0,
          1715.0,
          1715.0,
          1719.0,
          1722.0,
          1719.0,
          1725.0,
          1729.0,
          1722.0,
          1727.0,
          1730.0,
          1724.0,
          1734.0,
          1729.0,
          1724.0,
          1730.0,
          1728.0,
          1715.0,
          1717.0,
          1714.0,
          1721.0,
          1723.0,
          1712.0,
          1715.0,
          1716.0,
          1710.0,
          1719.0,
          1721.0,
          1720.0,
          1726.0,
          1729.0,
          1729.0,
          1726.0,
          1731.0,
          1723.0,
          1725.0,
          1712.0,
          1704.0,
          1710.0,
          1703.0,
          1712.0,
          1715.0,
          1714.0,
          1723.0,
          1727.0,
          1726.0,
          1733.0,
          1731.0,
          1726.0,
          1722.0,
          1718.0,
          1716.0,
          1723.0,
          1721.0,
          1724.0,
          1732.0,
          1726.0,
          1725.0,
          1719.0,
          1717.0,
          1723.0,
          1724.0,
          1724.0,
          1726.0,
          1732.0,
          1733.0,
          1721.0,
          1732.0,
          1734.0,
          1727.0,
          1725.0,
          1727.0,
          1718.0,
          1721.0,
          1713.0,
          1718.0,
          1728.0,
          1722.0,
          1728.0,
          1731.0,
          1731.0,
          1722.0,
          1718.0
        ]
      },
      "slices": {}
    }
  },
  "dummy_trs": 0,
  "dvars_nstd": 42.30206902543308,
  "dvars_std": 1.2619392994488194,
  "dvars_vstd": 1.0513514286614167,
  "efc": 0.5614646751045891,
  "fber": 1599.839111328125,
  "fd_mean": 0.6311237986886705,
  "fd_num": 114,
  "fd_perc": 89.0625,
  "fwhm_avg": 1.6162012194713935,
  "fwhm_x": 1.5123133333333334,
  "fwhm_y": 1.8102600000000002,
  "fwhm_z": 1.5260303250808473,
  "gcor": 0.0323212,
  "gsr_x": -0.011683836579322815,
  "gsr_y": 0.03677709773182869,
  "provenance": {
    "md5sum": "a527b76a30ed0404dd8c4db9a7c929cb",
    "settings": {
      "fd_thres": 0.2,
      "testing": false
    },
    "software": "mriqc",
    "version": "22.0.1",
    "webapi_port": null,
    "webapi_url": "https://mriqc.nimh.nih.gov/api/v1"
  },
  "size_t": 128,
  "size_x": 64,
  "size_y": 64,
  "size_z": 34,
  "snr": 6.9243608280488935,
  "spacing_tr": 2.3399999141693115,
  "spacing_x": 3.0,
  "spacing_y": 3.0,
  "spacing_z": 3.299999952316284,
  "summary_bg_k": 44.60928777608878,
  "summary_bg_mad": 8.189060691277035,
  "summary_bg_mean": 32.99992370605469,
  "summary_bg_median": 23.0859375,
  "summary_bg_n": 73726.0,
  "summary_bg_p05": 14.3046875,
  "summary_bg_p95": 87.20703125,
  "summary_bg_stdv": 34.40831756591797,
  "summary_fg_k": 2.1619382844250055,
  "summary_fg_mad": 135.69285148275878,
  "summary_fg_mean": 946.1246948242188,
  "summary_fg_median": 944.8515625,
  "summary_fg_n": 33020.0,
  "summary_fg_p05": 741.897265625,
  "summary_fg_p95": 1148.348046875,
  "summary_fg_stdv": 136.45118713378906,
  "tsnr": 45.63322207890451
}