{
  "aor": 0.0035639370078740158,
  "aqi": 0.016314393307086613,
  "bids_meta": {
    "AcquisitionMatrixPE": 64,
    "AcquisitionNumber": 1,
    "AcquisitionTime": "12:39:55.117500",
    "BandwidthPerPixelPhaseEncode": 24.038,
    "BaseResolution": 64,
    "BodyPartExamined": "HEAD",
    "ConsistencyInfo": "N4_VD13A_LATEST_20120616",
    "ConversionSoftware": "dcm2niix",
    "ConversionSoftwareVersion": "v1.0.20181125  GCC6.3.0",
    "DerivedVendorReportedEchoSpacing": 0.000650012,
    "DeviceSerialNumber": "45250",
    "DwellTime": 4.6e-06,
    "EchoTime": 0.033,
    "EchoTrainLength": 64,
    "EffectiveEchoSpacing": 0.000650012,
    "FlipAngle": 90,
    "ImageOrientationPatientDICOM": [
      0.997841,
      -0.0656731,
      0.000233092,
      0.0645275,
      0.979763,
      -0.189477
    ],
    "ImageType": [
      "ORIGINAL",
      "PRIMARY",
      "M",
      "ND",
      "NORM",
      "MOSAIC"
    ],
    "ImagingFrequency": 123.214,
    "InPlanePhaseEncodingDirectionDICOM": "COL",
    "InstitutionAddress": "Kopernikusstr._26_Graz_Graz_AT_8010",
    "InstitutionName": "KFU",
    "InstitutionalDepartmentName": "Department",
    "MRAcquisitionType": "2D",
    "MagneticFieldStrength": 3,
    "Manufacturer": "Siemens",
    "ManufacturersModelName": "Skyra",
    "Modality": "MR",
    "PartialFourier": 1,
    "PatientPosition": "HFS",
    "PercentPhaseFOV": 100,
    "PhaseEncodingDirection": "j-",
    "PhaseEncodingSteps": 64,
    "PhaseResolution": 1,
    "PixelBandwidth": 1700,
    "ProcedureStepDescription": "KFU_Entw-Psy",
    "ProtocolName": "fMRI_2",
    "PulseSequenceDetails": "%SiemensSeq%_ep2d_pace",
    "ReceiveCoilActiveElements": "HE1-4",
    "ReceiveCoilName": "HeadNeck_20",
    "ReconMatrixPE": 64,
    "RepetitionTime": 2.34,
    "SAR": 0.197465,
    "ScanOptions": "FS",
    "ScanningSequence": "EP",
    "SequenceName": "_epfid2d1_64",
    "SequenceVariant": "SK",
    "SeriesDescription": "fMRI_2",
    "SeriesNumber": 5,
    "ShimSetting": [
      -1607,
      -3705,
      -4216,
      454,
      388,
      335,
      491,
      -127
    ],
    "SliceThickness": 3,
    "SliceTiming": [
      2.2525,
      2.1825,
      2.115,
      2.0475,
      1.9775,
      1.91,
      1.8425,
      1.7725,
      1.705,
      1.6375,
      1.57,
      1.5,
      1.4325,
      1.365,
      1.295,
      1.2275,
      1.16,
      1.0925,
      1.0225,
      0.955,
      0.8875,
      0.8175,
      0.75,
      0.6825,
      0.615,
      0.545,
      0.4775,
      0.41,
      0.34,
      0.2725,
      0.205,
      0.135,
      0.0675,
      0
    ],
    "SoftwareVersions": "syngo_MR_D13",
    "SpacingBetweenSlices": 3.3,
    "StationName": "FBMTMR1",
    "TaskName": "read",
    "TotalReadoutTime": 0.0409508,
    "TxRefAmp": 328.632,
    "dataset": "ds003126",
    "dcmmeta_affine": [
      [
        -2.993523597717285,
        0.19358250498771667,
        -0.04030996188521385,
        89.95134735107422
      ],
      [
        0.19701924920082092,
        2.9392879009246826,
        -0.6239726543426514,
        -111.97669219970703
      ],
      [
        0.0006992749986238778,
        0.5684298872947693,
        3.2402212619781494,
        -17.386327743530273
      ],
      [
        0.0,
        0.0,
        0.0,
        1.0
      ]
    ],
    "dcmmeta_reorient_transform": [
      [
        0.0,
        -1.0,
        0.0,
        63.0
      ],
      [
        1.0,
        0.0,
        0.0,
        0.0
      ],
      [
        0.0,
        0.0,
        1.0,
        0.0
      ],
      [
        0.0,
        0.0,
        0.0,
        1.0
      ]
    ],
    "dcmmeta_shape": [
      64,
      64,
      34,
      127
    ],
    "dcmmeta_slice_dim": 2,
    "dcmmeta_version": 0.6,
    "global": {
      "const": {
        "AcquisitionMatrix": [
          64,
          0,
          0,
          64
        ],
        "AngioFlag": "N",
        "BitsAllocated": 16,
        "BitsStored": 12,
        "BodyPartExamined": "HEAD",
        "Columns": 384,
        "EchoNumbers": 1,
        "EchoTime": 33.0,
        "EchoTrainLength": 64,
        "FlipAngle": 90.0,
        "HighBit": 11,
        "ImageOrientationPatient": [
          0.99784116565758,
          -0.0656730826702,
          0.00023309167143,
          0.06452750179534,
          0.97976262982498,
          -0.1894766231241
        ],
        "ImagePositionPatient": [
          -612.08400705529,
          -511.96142953348,
          109.26164974446
        ],
        "ImageType": [
          "ORIGINAL",
          "PRIMARY",
          "M",
          "ND",
          "NORM",
          "MOSAIC"
        ],
        "ImagedNucleus": "1H",
        "ImagingFrequency": 123.214442,
        "InPlanePhaseEncodingDirection": "COL",
        "MRAcquisitionType": "2D",
        "MagneticFieldStrength": 3.0,
        "Manufacturer": "SIEMENS",
        "ManufacturerModelName": "Skyra",
        "Modality": "MR",
        "NumberOfAverages": 1.0,
        "NumberOfPhaseEncodingSteps": 64,
        "PercentPhaseFieldOfView": 100.0,
        "PercentSampling": 100.0,
        "PerformedProcedureStepStartTime": "122547.016000",
        "PhotometricInterpretation": "MONOCHROME2",
        "PixelBandwidth": 1700.0,
        "PixelRepresentation": 0,
        "PixelSpacing": [
          3.0,
          3.0
        ],
        "ProtocolName": "fMRI_2",
        "RepetitionTime": 2340.0,
        "Rows": 384,
        "SAR": 0.19746506980646,
        "SamplesPerPixel": 1,
        "ScanOptions": "FS",
        "ScanningSequence": "EP",
        "SequenceName": "*epfid2d1_64",
        "SequenceVariant": "SK",
        "SeriesDescription": "fMRI_2",
        "SeriesNumber": 5,
        "SeriesTime": "124047.717000",
        "SliceLocation": 3.0026997928435,
        "SliceThickness": 3.0,
        "SmallestImagePixelValue": 0,
        "SoftwareVersions": "syngo MR D13",
        "SpacingBetweenSlices": 3.3000000922586,
        "SpecificCharacterSet": "ISO_IR 100",
        "StudyID": "1",
        "StudyTime": "122546.952000",
        "TransmitCoilName": "Body",
        "VariableFlipAngleFlag": "N",
        "WindowCenterWidthExplanation": "Algo1",
        "dBdt": 0.0
      },
      "slices": {}
    },
    "modality": "bold",
    "run_id": 2,
    "session_id": "2",
    "subject_id": "047EPKL013016",
    "task_id": "read",
    "time": {
      "samples": {
        "AcquisitionNumber": [
          1,
          2,
          3,
          4,
          5,
          6,
          7,
          8,
          9,
          10,
          11,
          12,
          13,
          14,
          15,
          16,
          17,
          18,
          19,
          20,
          21,
          22,
          23,
          24,
          25,
          26,
          27,
          28,
          29,
          30,
          31,
          32,
          33,
          34,
          35,
          36,
          37,
          38,
          39,
          40,
          41,
          42,
          43,
          44,
          45,
          46,
          47,
          48,
          49,
          50,
          51,
          52,
          53,
          54,
          55,
          56,
          57,
          58,
          59,
          60,
          61,
          62,
          63,
          64,
          65,
          66,
          67,
          68,
          69,
          70,
          71,
          72,
          73,
          74,
          75,
          76,
          77,
          78,
          79,
          80,
          81,
          82,
          83,
          84,
          85,
          86,
          87,
          88,
          89,
          90,
          91,
          92,
          93,
          94,
          95,
          96,
          97,
          98,
          99,
          100,
          101,
          102,
          103,
          104,
          105,
          106,
          107,
          108,
          109,
          110,
          111,
          112,
          113,
          114,
          115,
          116,
          117,
          118,
          119,
          120,
          121,
          122,
          123,
          124,
          125,
          126,
          127
        ],
        "AcquisitionTime": [
          "123955.117500",
          "123957.457500",
          "123959.797500",
          "124002.137500",
          "124004.477500",
          "124006.817500",
          "124009.157500",
          "124011.497500",
          "124013.837500",
          "124016.177500",
          "124018.517500",
          "124020.857500",
          "124023.197500",
          "124025.537500",
          "124027.877500",
          "124030.217500",
          "124032.557500",
          "124034.897500",
          "124037.237500",
          "124039.577500",
          "124041.917500",
          "124044.257500",
          "124046.597500",
          "124048.937500",
          "124051.277500",
          "124053.617500",
          "124055.957500",
          "124058.297500",
          "124100.637500",
          "124102.977500",
          "124105.317500",
          "124107.657500",
          "124109.997500",
          "124112.337500",
          "124114.677500",
          "124117.017500",
          "124119.357500",
          "124121.697500",
          "124124.037500",
          "124126.377500",
          "124128.717500",
          "124131.057500",
          "124133.397500",
          "124135.737500",
          "124138.077500",
          "124140.417500",
          "124142.757500",
          "124145.097500",
          "124147.437500",
          "124149.777500",
          "124152.117500",
          "124154.457500",
          "124156.797500",
          "124159.137500",
          "124201.477500",
          "124203.817500",
          "124206.157500",
          "124208.497500",
          "124210.837500",
          "124213.177500",
          "124215.517500",
          "124217.857500",
          "124220.197500",
          "124222.537500",
          "124224.877500",
          "124227.217500",
          "124229.557500",
          "124231.897500",
          "124234.237500",
          "124236.577500",
          "124238.917500",
          "124241.257500",
          "124243.597500",
          "124245.937500",
          "124248.277500",
          "124250.617500",
          "124252.957500",
          "124255.297500",
          "124257.637500",
          "124259.977500",
          "124302.317500",
          "124304.657500",
          "124306.997500",
          "124309.337500",
          "124311.677500",
          "124314.017500",
          "124316.357500",
          "124318.697500",
          "124321.037500",
          "124323.377500",
          "124325.717500",
          "124328.057500",
          "124330.397500",
          "124332.737500",
          "124335.077500",
          "124337.417500",
          "124339.757500",
          "124342.097500",
          "124344.437500",
          "124346.777500",
          "124349.117500",
          "124351.457500",
          "124353.797500",
          "124356.137500",
          "124358.477500",
          "124400.817500",
          "124403.157500",
          "124405.497500",
          "124407.837500",
          "124410.177500",
          "124412.517500",
          "124414.857500",
          "124417.197500",
          "124419.537500",
          "124421.877500",
          "124424.217500",
          "124426.557500",
          "124428.897500",
          "124431.237500",
          "124433.577500",
          "124435.917500",
          "124438.257500",
          "124440.597500",
          "124442.937500",
          "124445.277500",
          "124447.617500",
          "124449.957500"
        ],
        "ContentTime": [
          "124047.721000",
          "124047.725000",
          "124047.728000",
          "124047.730000",
          "124047.733000",
          "124047.740000",
          "124047.743000",
          "124047.746000",
          "124047.748000",
          "124047.751000",
          "124047.754000",
          "124047.757000",
          "124047.759000",
          "124047.762000",
          "124047.769000",
          "124047.772000",
          "124047.775000",
          "124047.777000",
          "124047.780000",
          "124047.783000",
          "124047.786000",
          "124047.788000",
          "124047.791000",
          "124147.717000",
          "124147.720000",
          "124147.726000",
          "124147.728000",
          "124147.731000",
          "124147.734000",
          "124147.737000",
          "124147.739000",
          "124147.742000",
          "124147.744000",
          "124147.747000",
          "124147.750000",
          "124147.753000",
          "124147.755000",
          "124147.758000",
          "124147.760000",
          "124147.763000",
          "124147.766000",
          "124147.768000",
          "124147.771000",
          "124147.774000",
          "124147.776000",
          "124147.779000",
          "124147.782000",
          "124147.784000",
          "124247.716000",
          "124247.732000",
          "124247.735000",
          "124247.737000",
          "124247.746000",
          "124247.749000",
          "124247.752000",
          "124247.755000",
          "124247.758000",
          "124247.760000",
          "124247.763000",
          "124247.766000",
          "124247.768000",
          "124247.771000",
          "124247.774000",
          "124247.776000",
          "124247.779000",
          "124247.782000",
          "124247.785000",
          "124247.787000",
          "124247.790000",
          "124247.793000",
          "124247.796000",
          "124247.798000",
          "124247.801000",
          "124247.804000",
          "124347.717000",
          "124347.720000",
          "124347.723000",
          "124347.726000",
          "124347.729000",
          "124347.732000",
          "124347.734000",
          "124347.737000",
          "124347.740000",
          "124347.743000",
          "124347.745000",
          "124347.748000",
          "124347.751000",
          "124347.754000",
          "124347.756000",
          "124347.759000",
          "124347.762000",
          "124347.764000",
          "124347.767000",
          "124347.770000",
          "124347.773000",
          "124347.775000",
          "124347.778000",
          "124347.781000",
          "124347.784000",
          "124347.790000",
          "124447.715000",
          "124447.718000",
          "124447.721000",
          "124447.723000",
          "124447.733000",
          "124447.735000",
          "124447.738000",
          "124447.741000",
          "124447.744000",
          "124447.746000",
          "124447.749000",
          "124447.751000",
          "124447.754000",
          "124447.757000",
          "124447.760000",
          "124447.762000",
          "124447.765000",
          "124447.768000",
          "124447.770000",
          "124447.773000",
          "124447.776000",
          "124447.778000",
          "124447.781000",
          "124447.784000",
          "124447.786000",
          "124451.138000",
          "124451.142000"
        ],
        "InstanceCreationTime": [
          "124047.721000",
          "124047.725000",
          "124047.728000",
          "124047.730000",
          "124047.733000",
          "124047.740000",
          "124047.743000",
          "124047.746000",
          "124047.748000",
          "124047.751000",
          "124047.754000",
          "124047.757000",
          "124047.759000",
          "124047.762000",
          "124047.769000",
          "124047.772000",
          "124047.775000",
          "124047.777000",
          "124047.780000",
          "124047.783000",
          "124047.786000",
          "124047.788000",
          "124047.791000",
          "124147.717000",
          "124147.720000",
          "124147.726000",
          "124147.728000",
          "124147.731000",
          "124147.734000",
          "124147.737000",
          "124147.739000",
          "124147.742000",
          "124147.744000",
          "124147.747000",
          "124147.750000",
          "124147.753000",
          "124147.755000",
          "124147.758000",
          "124147.760000",
          "124147.763000",
          "124147.766000",
          "124147.768000",
          "124147.771000",
          "124147.774000",
          "124147.776000",
          "124147.779000",
          "124147.782000",
          "124147.784000",
          "124247.716000",
          "124247.732000",
          "124247.735000",
          "124247.737000",
          "124247.746000",
          "124247.749000",
          "124247.752000",
          "124247.755000",
          "124247.758000",
          "124247.760000",
          "124247.763000",
          "124247.766000",
          "124247.768000",
          "124247.771000",
          "124247.774000",
          "124247.776000",
          "124247.779000",
          "124247.782000",
          "124247.785000",
          "124247.787000",
          "124247.790000",
          "124247.793000",
          "124247.796000",
          "124247.798000",
          "124247.801000",
          "124247.804000",
          "124347.717000",
          "124347.720000",
          "124347.723000",
          "124347.726000",
          "124347.729000",
          "124347.732000",
          "124347.734000",
          "124347.737000",
          "124347.740000",
          "124347.743000",
          "124347.745000",
          "124347.748000",
          "124347.751000",
          "124347.754000",
          "124347.756000",
          "124347.759000",
          "124347.762000",
          "124347.764000",
          "124347.767000",
          "124347.770000",
          "124347.773000",
          "124347.775000",
          "124347.778000",
          "124347.781000",
          "124347.784000",
          "124347.790000",
          "124447.715000",
          "124447.718000",
          "124447.721000",
          "124447.723000",
          "124447.733000",
          "124447.735000",
          "124447.738000",
          "124447.741000",
          "124447.744000",
          "124447.746000",
          "124447.749000",
          "124447.751000",
          "124447.754000",
          "124447.757000",
          "124447.760000",
          "124447.762000",
          "124447.765000",
          "124447.768000",
          "124447.770000",
          "124447.773000",
          "124447.776000",
          "124447.778000",
          "124447.781000",
          "124447.784000",
          "124447.786000",
          "124451.138000",
          "124451.142000"
        ],
        "InstanceNumber": [
          1,
          2,
          3,
          4,
          5,
          6,
          7,
          8,
          9,
          10,
          11,
          12,
          13,
          14,
          15,
          16,
          17,
          18,
          19,
          20,
          21,
          22,
          23,
          24,
          25,
          26,
          27,
          28,
          29,
          30,
          31,
          32,
          33,
          34,
          35,
          36,
          37,
          38,
          39,
          40,
          41,
          42,
          43,
          44,
          45,
          46,
          47,
          48,
          49,
          50,
          51,
          52,
          53,
          54,
          55,
          56,
          57,
          58,
          59,
          60,
          61,
          62,
          63,
          64,
          65,
          66,
          67,
          68,
          69,
          70,
          71,
          72,
          73,
          74,
          75,
          76,
          77,
          78,
          79,
          80,
          81,
          82,
          83,
          84,
          85,
          86,
          87,
          88,
          89,
          90,
          91,
          92,
          93,
          94,
          95,
          96,
          97,
          98,
          99,
          100,
          101,
          102,
          103,
          104,
          105,
          106,
          107,
          108,
          109,
          110,
          111,
          112,
          113,
          114,
          115,
          116,
          117,
          118,
          119,
          120,
          121,
          122,
          123,
          124,
          125,
          126,
          127
        ],
        "LargestImagePixelValue": [
          3903,
          3132,
          4095,
          4095,
          2814,
          2304,
          3330,
          4095,
          2130,
          3022,
          3534,
          3247,
          2818,
          4031,
          3791,
          3756,
          2582,
          2195,
          3674,
          3067,
          2037,
          3979,
          3387,
          3835,
          3912,
          2664,
          3512,
          2016,
          2581,
          4048,
          2766,
          2922,
          3677,
          3159,
          3663,
          3618,
          3999,
          3176,
          3596,
          2051,
          4002,
          2842,
          3388,
          4095,
          2332,
          3675,
          3615,
          3104,
          2002,
          3308,
          3178,
          3979,
          3399,
          4046,
          2949,
          4095,
          3757,
          2853,
          2981,
          4095,
          3393,
          3811,
          2534,
          2228,
          4052,
          3296,
          4095,
          3449,
          3150,
          2686,
          3400,
          2167,
          4095,
          2454,
          2039,
          3314,
          3226,
          2086,
          4095,
          4095,
          3840,
          4095,
          2252,
          2029,
          3816,
          3794,
          4095,
          3564,
          2313,
          3263,
          3962,
          3811,
          2134,
          2427,
          3658,
          3688,
          4095,
          4007,
          2820,
          3099,
          3686,
          3858,
          2805,
          2542,
          3710,
          3819,
          3350,
          3318,
          3791,
          3627,
          4095,
          2390,
          3794,
          3565,
          3987,
          2413,
          3603,
          3412,
          4087,
          3077,
          3698,
          3260,
          2024,
          3485,
          4095,
          2092,
          2497
        ],
        "WindowCenter": [
          854.0,
          852.0,
          852.0,
          851.0,
          851.0,
          848.0,
          848.0,
          848.0,
          847.0,
          848.0,
          849.0,
          852.0,
          850.0,
          852.0,
          850.0,
          850.0,
          848.0,
          849.0,
          849.0,
          850.0,
          850.0,
          852.0,
          850.0,
          850.0,
          852.0,
          848.0,
          849.0,
          849.0,
          850.0,
          850.0,
          851.0,
          850.0,
          851.0,
          852.0,
          851.0,
          852.0,
          850.0,
          849.0,
          848.0,
          849.0,
          852.0,
          849.0,
          849.0,
          851.0,
          850.0,
          848.0,
          849.0,
          848.0,
          847.0,
          850.0,
          851.0,
          850.0,
          851.0,
          852.0,
          849.0,
          850.0,
          851.0,
          849.0,
          850.0,
          851.0,
          849.0,
          851.0,
          852.0,
          852.0,
          852.0,
          850.0,
          850.0,
          850.0,
          849.0,
          850.0,
          852.0,
          850.0,
          852.0,
          851.0,
          849.0,
          852.0,
          851.0,
          852.0,
          854.0,
          854.0,
          850.0,
          850.0,
          849.0,
          851.0,
          854.0,
          852.0,
          851.0,
          852.0,
          852.0,
          853.0,
          852.0,
          851.0,
          852.0,
          854.0,
          856.0,
          853.0,
          853.0,
          851.0,
          850.0,
          852.0,
          854.0,
          851.0,
          851.0,
          853.0,
          852.0,
          853.0,
          852.0,
          851.0,
          853.0,
          853.0,
          851.0,
          851.0,
          853.0,
          853.0,
          854.0,
          853.0,
          852.0,
          856.0,
          853.0,
          852.0,
          853.0,
          851.0,
          852.0,
          853.0,
          851.0,
          851.0,
          852.0
        ],
        "WindowWidth": [
          1820.0,
          1816.0,
          1815.0,
          1813.0,
          1809.0,
          1804.0,
          1805.0,
          1806.0,
          1802.0,
          1804.0,
          1809.0,
          1811.0,
          1806.0,
          1815.0,
          1809.0,
          1808.0,
          1803.0,
          1807.0,
          1810.0,
          1809.0,
          1808.0,
          1815.0,
          1808.0,
          1810.0,
          1813.0,
          1804.0,
          1807.0,
          1804.0,
          1806.0,
          1810.0,
          1809.0,
          1810.0,
          1812.0,
          1811.0,
          1812.0,
          1813.0,
          1810.0,
          1807.0,
          1804.0,
          1806.0,
          1814.0,
          1805.0,
          1806.0,
          1814.0,
          1807.0,
          1805.0,
          1807.0,
          1800.0,
          1798.0,
          1811.0,
          1810.0,
          1811.0,
          1812.0,
          1815.0,
          1806.0,
          1811.0,
          1812.0,
          1806.0,
          1808.0,
          1813.0,
          1806.0,
          1811.0,
          1812.0,
          1812.0,
          1815.0,
          1809.0,
          1808.0,
          1808.0,
          1807.0,
          1809.0,
          1814.0,
          1807.0,
          1815.0,
          1811.0,
          1806.0,
          1814.0,
          1811.0,
          1813.0,
          1821.0,
          1820.0,
          1809.0,
          1811.0,
          1805.0,
          1811.0,
          1821.0,
          1815.0,
          1811.0,
          1814.0,
          1814.0,
          1815.0,
          1817.0,
          1814.0,
          1812.0,
          1820.0,
          1824.0,
          1817.0,
          1816.0,
          1814.0,
          1807.0,
          1815.0,
          1820.0,
          1811.0,
          1810.0,
          1816.0,
          1816.0,
          1817.0,
          1813.0,
          1812.0,
          1817.0,
          1817.0,
          1814.0,
          1811.0,
          1817.0,
          1818.0,
          1824.0,
          1816.0,
          1817.0,
          1824.0,
          1819.0,
          1815.0,
          1818.0,
          1813.0,
          1813.0,
          1817.0,
          1813.0,
          1812.0,
          1813.0
        ]
      },
      "slices": {}
    }
  },
  "dummy_trs": 0,
  "dvars_nstd": 40.6518706215873,
  "dvars_std": 1.3645061076984126,
  "dvars_vstd": 1.0423540088095238,
  "efc": 0.5853684060030702,
  "fber": 1767.1343994140625,
  "fd_mean": 0.5845053969360386,
  "fd_num": 119,
  "fd_perc": 93.7007874015748,
  "fwhm_avg": 1.647565121333857,
  "fwhm_x": 1.5318733333333334,
  "fwhm_y": 1.8442766666666666,
  "fwhm_z": 1.566545364001571,
  "gcor": 0.0259171,
  "gsr_x": -0.007298629265278578,
  "gsr_y": 0.042117372155189514,
  "provenance": {
    "md5sum": "0814c5eb74ea1ec5cb526dcfd2e0ae46",
    "settings": {
      "fd_thres": 0.2,
      "testing": false
    },
    "software": "mriqc",
    "version": "22.0.1",
    "webapi_port": null,
    "webapi_url": "https://mriqc.nimh.nih.gov/api/v1"
  },
  "size_t": 127,
  "size_x": 64,
  "size_y": 64,
  "size_z": 34,
  "snr": 7.450716824455674,
  "spacing_tr": 2.3399999141693115,
  "spacing_x": 3.0,
  "spacing_y": 3.0,
  "spacing_z": 3.3000001907348633,
  "summary_bg_k": 49.891892482041555,
  "summary_bg_mad": 8.977332211543207,
  "summary_bg_mean": 35.71024703979492,
  "summary_bg_median": 23.181102752685547,
  "summary_bg_n": 69372.0,
  "summary_bg_p05": 13.527559280395508,
  "summary_bg_p95": 90.47441101074207,
  "summary_bg_stdv": 48.96617126464844,
  "summary_fg_k": 2.2105569920219326,
  "summary_fg_mad": 130.71413496298587,
  "summary_fg_mean": 997.409423828125,
  "summary_fg_median": 996.7559204101562,
  "summary_fg_n": 36996.0,
  "summary_fg_p05": 798.0826721191406,
  "summary_fg_p95": 1201.9487609863281,
  "summary_fg_stdv": 133.77806091308594,
  "tsnr": 54.75374642619863
}