{
  "aor": 0.006408809523809525,
  "aqi": 0.015780120555555558,
  "bids_meta": {
    "AcquisitionMatrixPE": 64,
    "AcquisitionNumber": 1,
    "AcquisitionTime": "10:00:1.665000",
    "BandwidthPerPixelPhaseEncode": 24.038,
    "BaseResolution": 64,
    "BodyPartExamined": "HEAD",
    "ConsistencyInfo": "N4_VD13A_LATEST_20120616",
    "ConversionSoftware": "dcm2niix",
    "ConversionSoftwareVersion": "v1.0.20181125  GCC6.3.0",
    "DerivedVendorReportedEchoSpacing": 0.000650012,
    "DeviceSerialNumber": "45250",
    "DwellTime": 4.6e-06,
    "EchoTime": 0.033,
    "EchoTrainLength": 64,
    "EffectiveEchoSpacing": 0.000650012,
    "FlipAngle": 90,
    "ImageOrientationPatientDICOM": [
      0.997366,
      -0.071896,
      -0.00955567,
      0.0714922,
      0.996739,
      -0.037424
    ],
    "ImageType": [
      "ORIGINAL",
      "PRIMARY",
      "M",
      "ND",
      "NORM",
      "MOSAIC"
    ],
    "ImagingFrequency": 123.214,
    "InPlanePhaseEncodingDirectionDICOM": "COL",
    "InstitutionAddress": "Kopernikusstr._26_Graz_Graz_AT_8010",
    "InstitutionName": "KFU",
    "InstitutionalDepartmentName": "Department",
    "MRAcquisitionType": "2D",
    "MagneticFieldStrength": 3,
    "Manufacturer": "Siemens",
    "ManufacturersModelName": "Skyra",
    "Modality": "MR",
    "PartialFourier": 1,
    "PatientPosition": "HFS",
    "PercentPhaseFOV": 100,
    "PhaseEncodingDirection": "j-",
    "PhaseEncodingSteps": 64,
    "PhaseResolution": 1,
    "PixelBandwidth": 1700,
    "ProcedureStepDescription": "KFU_Entw-Psy",
    "ProtocolName": "fMRI_2",
    "PulseSequenceDetails": "%SiemensSeq%_ep2d_pace",
    "ReceiveCoilActiveElements": "HE1-4",
    "ReceiveCoilName": "HeadNeck_20",
    "ReconMatrixPE": 64,
    "RepetitionTime": 2.34,
    "SAR": 0.167502,
    "ScanOptions": "FS",
    "ScanningSequence": "EP",
    "SequenceName": "_epfid2d1_64",
    "SequenceVariant": "SK",
    "SeriesDescription": "fMRI_2",
    "SeriesNumber": 5,
    "ShimSetting": [
      -1606,
      -3739,
      -4227,
      709,
      293,
      15,
      475,
      -182
    ],
    "SliceThickness": 3,
    "SliceTiming": [
      2.2525,
      2.1825,
      2.115,
      2.0475,
      1.9775,
      1.91,
      1.8425,
      1.775,
      1.705,
      1.6375,
      1.57,
      1.5,
      1.4325,
      1.365,
      1.2975,
      1.2275,
      1.16,
      1.0925,
      1.0225,
      0.955,
      0.8875,
      0.8175,
      0.75,
      0.6825,
      0.615,
      0.545,
      0.4775,
      0.41,
      0.34,
      0.2725,
      0.205,
      0.1375,
      0.0675,
      0
    ],
    "SoftwareVersions": "syngo_MR_D13",
    "SpacingBetweenSlices": 3.3,
    "StationName": "FBMTMR1",
    "TaskName": "read",
    "TotalReadoutTime": 0.0409508,
    "TxRefAmp": 329.875,
    "dataset": "ds003126",
    "dcmmeta_affine": [
      [
        -2.9920990467071533,
        0.21447652578353882,
        -0.04030996561050415,
        87.69745635986328
      ],
      [
        0.21568790078163147,
        2.9902164936065674,
        -0.12091951817274094,
        -120.82237243652344
      ],
      [
        -0.028667006641626358,
        0.1122719794511795,
        3.2975375652313232,
        -10.797073364257812
      ],
      [
        0.0,
        0.0,
        0.0,
        1.0
      ]
    ],
    "dcmmeta_reorient_transform": [
      [
        0.0,
        -1.0,
        0.0,
        63.0
      ],
      [
        1.0,
        0.0,
        0.0,
        0.0
      ],
      [
        0.0,
        0.0,
        1.0,
        0.0
      ],
      [
        0.0,
        0.0,
        0.0,
        1.0
      ]
    ],
    "dcmmeta_shape": [
      64,
      64,
      34,
      126
    ],
    "dcmmeta_slice_dim": 2,
    "dcmmeta_version": 0.6,
    "global": {
      "const": {
        "AcquisitionMatrix": [
          64,
          0,
          0,
          64
        ],
        "AngioFlag": "N",
        "BitsAllocated": 16,
        "BitsStored": 12,
        "BodyPartExamined": "HEAD",
        "Columns": 384,
        "EchoNumbers": 1,
        "EchoTime": 33.0,
        "EchoTrainLength": 64,
        "FlipAngle": 90.0,
        "HighBit": 11,
        "ImageOrientationPatient": [
          0.99736636149368,
          -0.0718959675976,
          -0.0095556686868,
          0.07149217655221,
          0.99673883913308,
          -0.0374239930454
        ],
        "ImagePositionPatient": [
          -614.26157690014,
          -511.48584784047,
          18.826299256856
        ],
        "ImageType": [
          "ORIGINAL",
          "PRIMARY",
          "M",
          "ND",
          "NORM",
          "MOSAIC"
        ],
        "ImagedNucleus": "1H",
        "ImagingFrequency": 123.214463,
        "InPlanePhaseEncodingDirection": "COL",
        "MRAcquisitionType": "2D",
        "MagneticFieldStrength": 3.0,
        "Manufacturer": "SIEMENS",
        "ManufacturerModelName": "Skyra",
        "Modality": "MR",
        "NumberOfAverages": 1.0,
        "NumberOfPhaseEncodingSteps": 64,
        "PercentPhaseFieldOfView": 100.0,
        "PercentSampling": 100.0,
        "PerformedProcedureStepStartTime": "094802.655000",
        "PhotometricInterpretation": "MONOCHROME2",
        "PixelBandwidth": 1700.0,
        "PixelRepresentation": 0,
        "PixelSpacing": [
          3.0,
          3.0
        ],
        "ProtocolName": "fMRI_2",
        "RepetitionTime": 2340.0,
        "Rows": 384,
        "SAR": 0.16750170707563,
        "SamplesPerPixel": 1,
        "ScanOptions": "FS",
        "ScanningSequence": "EP",
        "SequenceName": "*epfid2d1_64",
        "SequenceVariant": "SK",
        "SeriesDescription": "fMRI_2",
        "SeriesNumber": 5,
        "SeriesTime": "100101.760000",
        "SliceLocation": -7.433046210101,
        "SliceThickness": 3.0,
        "SmallestImagePixelValue": 0,
        "SoftwareVersions": "syngo MR D13",
        "SpacingBetweenSlices": 3.3000000981435,
        "SpecificCharacterSet": "ISO_IR 100",
        "StudyID": "1",
        "StudyTime": "094802.605000",
        "TransmitCoilName": "Body",
        "VariableFlipAngleFlag": "N",
        "WindowCenterWidthExplanation": "Algo1",
        "dBdt": 0.0
      },
      "slices": {}
    },
    "modality": "bold",
    "run_id": 2,
    "session_id": "2",
    "subject_id": "047EPKL014007",
    "task_id": "read",
    "time": {
      "samples": {
        "AcquisitionNumber": [
          1,
          2,
          3,
          4,
          5,
          6,
          7,
          8,
          9,
          10,
          11,
          12,
          13,
          14,
          15,
          16,
          17,
          18,
          19,
          20,
          21,
          22,
          23,
          24,
          25,
          26,
          27,
          28,
          29,
          30,
          31,
          32,
          33,
          34,
          35,
          36,
          37,
          38,
          39,
          40,
          41,
          42,
          43,
          44,
          45,
          46,
          47,
          48,
          49,
          50,
          51,
          52,
          53,
          54,
          55,
          56,
          57,
          58,
          59,
          60,
          61,
          62,
          63,
          64,
          65,
          66,
          67,
          68,
          69,
          70,
          71,
          72,
          73,
          74,
          75,
          76,
          77,
          78,
          79,
          80,
          81,
          82,
          83,
          84,
          85,
          86,
          87,
          88,
          89,
          90,
          91,
          92,
          93,
          94,
          95,
          96,
          97,
          98,
          99,
          100,
          101,
          102,
          103,
          104,
          105,
          106,
          107,
          108,
          109,
          110,
          111,
          112,
          113,
          114,
          115,
          116,
          117,
          118,
          119,
          120,
          121,
          122,
          123,
          124,
          125,
          126
        ],
        "AcquisitionTime": [
          "100001.665000",
          "100004.005000",
          "100006.345000",
          "100008.685000",
          "100011.025000",
          "100013.365000",
          "100015.705000",
          "100018.045000",
          "100020.385000",
          "100022.725000",
          "100025.065000",
          "100027.405000",
          "100029.745000",
          "100032.085000",
          "100034.425000",
          "100036.765000",
          "100039.105000",
          "100041.445000",
          "100043.785000",
          "100046.125000",
          "100048.465000",
          "100050.805000",
          "100053.145000",
          "100055.485000",
          "100057.825000",
          "100100.165000",
          "100102.505000",
          "100104.845000",
          "100107.185000",
          "100109.525000",
          "100111.865000",
          "100114.205000",
          "100116.545000",
          "100118.885000",
          "100121.225000",
          "100123.565000",
          "100125.905000",
          "100128.245000",
          "100130.585000",
          "100132.925000",
          "100135.265000",
          "100137.605000",
          "100139.945000",
          "100142.285000",
          "100144.625000",
          "100146.965000",
          "100149.305000",
          "100151.645000",
          "100153.985000",
          "100156.325000",
          "100158.665000",
          "100201.005000",
          "100203.345000",
          "100205.685000",
          "100208.025000",
          "100210.365000",
          "100212.705000",
          "100215.045000",
          "100217.385000",
          "100219.725000",
          "100222.065000",
          "100224.405000",
          "100226.745000",
          "100229.085000",
          "100231.425000",
          "100233.765000",
          "100236.105000",
          "100238.445000",
          "100240.785000",
          "100243.125000",
          "100245.465000",
          "100247.805000",
          "100250.145000",
          "100252.485000",
          "100254.825000",
          "100257.165000",
          "100259.505000",
          "100301.845000",
          "100304.185000",
          "100306.525000",
          "100308.865000",
          "100311.205000",
          "100313.545000",
          "100315.885000",
          "100318.225000",
          "100320.565000",
          "100322.905000",
          "100325.245000",
          "100327.585000",
          "100329.925000",
          "100332.265000",
          "100334.605000",
          "100336.945000",
          "100339.285000",
          "100341.625000",
          "100343.965000",
          "100346.305000",
          "100348.645000",
          "100350.985000",
          "100353.325000",
          "100355.665000",
          "100358.005000",
          "100400.345000",
          "100402.685000",
          "100405.025000",
          "100407.365000",
          "100409.705000",
          "100412.045000",
          "100414.385000",
          "100416.725000",
          "100419.065000",
          "100421.405000",
          "100423.745000",
          "100426.085000",
          "100428.425000",
          "100430.765000",
          "100433.105000",
          "100435.445000",
          "100437.785000",
          "100440.125000",
          "100442.465000",
          "100444.805000",
          "100447.145000",
          "100449.485000",
          "100451.825000",
          "100454.165000"
        ],
        "ContentTime": [
          "100101.764000",
          "100101.767000",
          "100101.770000",
          "100101.780000",
          "100101.783000",
          "100101.786000",
          "100101.788000",
          "100101.791000",
          "100101.794000",
          "100101.797000",
          "100101.799000",
          "100101.802000",
          "100101.805000",
          "100101.807000",
          "100101.810000",
          "100101.813000",
          "100101.815000",
          "100101.818000",
          "100101.821000",
          "100101.824000",
          "100101.826000",
          "100101.829000",
          "100101.831000",
          "100101.834000",
          "100101.837000",
          "100101.839000",
          "100201.758000",
          "100201.762000",
          "100201.764000",
          "100201.767000",
          "100201.769000",
          "100201.772000",
          "100201.775000",
          "100201.778000",
          "100201.781000",
          "100201.783000",
          "100201.786000",
          "100201.789000",
          "100201.791000",
          "100201.794000",
          "100201.797000",
          "100201.799000",
          "100201.802000",
          "100201.805000",
          "100201.808000",
          "100201.810000",
          "100201.813000",
          "100201.816000",
          "100201.819000",
          "100201.821000",
          "100201.824000",
          "100201.827000",
          "100301.758000",
          "100301.767000",
          "100301.769000",
          "100301.772000",
          "100301.775000",
          "100301.778000",
          "100301.780000",
          "100301.783000",
          "100301.785000",
          "100301.788000",
          "100301.791000",
          "100301.793000",
          "100301.796000",
          "100301.799000",
          "100301.802000",
          "100301.804000",
          "100301.807000",
          "100301.810000",
          "100301.812000",
          "100301.815000",
          "100301.817000",
          "100301.820000",
          "100301.823000",
          "100301.825000",
          "100301.833000",
          "100401.758000",
          "100401.761000",
          "100401.764000",
          "100401.772000",
          "100401.775000",
          "100401.778000",
          "100401.780000",
          "100401.783000",
          "100401.786000",
          "100401.788000",
          "100401.791000",
          "100401.794000",
          "100401.802000",
          "100401.805000",
          "100401.807000",
          "100401.810000",
          "100401.813000",
          "100401.815000",
          "100401.818000",
          "100401.821000",
          "100401.823000",
          "100401.826000",
          "100401.829000",
          "100401.832000",
          "100401.834000",
          "100401.837000",
          "100421.758000",
          "100421.762000",
          "100421.765000",
          "100421.773000",
          "100421.776000",
          "100421.779000",
          "100421.781000",
          "100421.784000",
          "100455.650000",
          "100455.654000",
          "100455.656000",
          "100455.661000",
          "100455.664000",
          "100455.667000",
          "100455.671000",
          "100455.674000",
          "100455.678000",
          "100455.681000",
          "100455.684000",
          "100455.687000",
          "100455.689000",
          "100455.693000",
          "100455.695000"
        ],
        "InstanceCreationTime": [
          "100101.764000",
          "100101.767000",
          "100101.770000",
          "100101.780000",
          "100101.783000",
          "100101.786000",
          "100101.788000",
          "100101.791000",
          "100101.794000",
          "100101.797000",
          "100101.799000",
          "100101.802000",
          "100101.805000",
          "100101.807000",
          "100101.810000",
          "100101.813000",
          "100101.815000",
          "100101.818000",
          "100101.821000",
          "100101.824000",
          "100101.826000",
          "100101.829000",
          "100101.831000",
          "100101.834000",
          "100101.837000",
          "100101.839000",
          "100201.758000",
          "100201.762000",
          "100201.764000",
          "100201.767000",
          "100201.769000",
          "100201.772000",
          "100201.775000",
          "100201.778000",
          "100201.781000",
          "100201.783000",
          "100201.786000",
          "100201.789000",
          "100201.791000",
          "100201.794000",
          "100201.797000",
          "100201.799000",
          "100201.802000",
          "100201.805000",
          "100201.808000",
          "100201.810000",
          "100201.813000",
          "100201.816000",
          "100201.819000",
          "100201.821000",
          "100201.824000",
          "100201.827000",
          "100301.758000",
          "100301.767000",
          "100301.769000",
          "100301.772000",
          "100301.775000",
          "100301.778000",
          "100301.780000",
          "100301.783000",
          "100301.785000",
          "100301.788000",
          "100301.791000",
          "100301.793000",
          "100301.796000",
          "100301.799000",
          "100301.802000",
          "100301.804000",
          "100301.807000",
          "100301.810000",
          "100301.812000",
          "100301.815000",
          "100301.817000",
          "100301.820000",
          "100301.823000",
          "100301.825000",
          "100301.833000",
          "100401.758000",
          "100401.761000",
          "100401.764000",
          "100401.772000",
          "100401.775000",
          "100401.778000",
          "100401.780000",
          "100401.783000",
          "100401.786000",
          "100401.788000",
          "100401.791000",
          "100401.794000",
          "100401.802000",
          "100401.805000",
          "100401.807000",
          "100401.810000",
          "100401.813000",
          "100401.815000",
          "100401.818000",
          "100401.821000",
          "100401.823000",
          "100401.826000",
          "100401.829000",
          "100401.832000",
          "100401.834000",
          "100401.837000",
          "100421.758000",
          "100421.762000",
          "100421.765000",
          "100421.773000",
          "100421.776000",
          "100421.779000",
          "100421.781000",
          "100421.784000",
          "100455.650000",
          "100455.654000",
          "100455.656000",
          "100455.661000",
          "100455.664000",
          "100455.667000",
          "100455.671000",
          "100455.674000",
          "100455.678000",
          "100455.681000",
          "100455.684000",
          "100455.687000",
          "100455.689000",
          "100455.693000",
          "100455.695000"
        ],
        "InstanceNumber": [
          1,
          2,
          3,
          4,
          5,
          6,
          7,
          8,
          9,
          10,
          11,
          12,
          13,
          14,
          15,
          16,
          17,
          18,
          19,
          20,
          21,
          22,
          23,
          24,
          25,
          26,
          27,
          28,
          29,
          30,
          31,
          32,
          33,
          34,
          35,
          36,
          37,
          38,
          39,
          40,
          41,
          42,
          43,
          44,
          45,
          46,
          47,
          48,
          49,
          50,
          51,
          52,
          53,
          54,
          55,
          56,
          57,
          58,
          59,
          60,
          61,
          62,
          63,
          64,
          65,
          66,
          67,
          68,
          69,
          70,
          71,
          72,
          73,
          74,
          75,
          76,
          77,
          78,
          79,
          80,
          81,
          82,
          83,
          84,
          85,
          86,
          87,
          88,
          89,
          90,
          91,
          92,
          93,
          94,
          95,
          96,
          97,
          98,
          99,
          100,
          101,
          102,
          103,
          104,
          105,
          106,
          107,
          108,
          109,
          110,
          111,
          112,
          113,
          114,
          115,
          116,
          117,
          118,
          119,
          120,
          121,
          122,
          123,
          124,
          125,
          126
        ],
        "LargestImagePixelValue": [
          2302,
          2783,
          2128,
          3037,
          2622,
          2119,
          2908,
          3084,
          2046,
          1962,
          2000,
          1936,
          2167,
          2498,
          1981,
          1984,
          2376,
          2348,
          2404,
          1937,
          2395,
          2650,
          2131,
          2865,
          2930,
          2182,
          2464,
          2089,
          2023,
          2712,
          3063,
          2143,
          2205,
          1955,
          2847,
          2165,
          1958,
          2583,
          1984,
          2040,
          2973,
          1988,
          1992,
          1980,
          2091,
          2049,
          2341,
          1955,
          2546,
          3017,
          2004,
          2000,
          2127,
          2448,
          1932,
          2029,
          2574,
          2073,
          2819,
          2633,
          1975,
          2176,
          2022,
          1938,
          1909,
          1942,
          2108,
          2146,
          2240,
          2248,
          2681,
          2242,
          2540,
          2175,
          1944,
          2878,
          2133,
          1966,
          2275,
          1941,
          1978,
          2552,
          2688,
          2216,
          2213,
          2003,
          2254,
          2913,
          2104,
          2249,
          2494,
          2796,
          2314,
          2268,
          1993,
          2051,
          2401,
          2111,
          1998,
          1952,
          2858,
          2278,
          2518,
          2055,
          2298,
          2305,
          2323,
          2016,
          1956,
          1967,
          2026,
          2046,
          2055,
          1977,
          2864,
          2091,
          2327,
          2200,
          2010,
          2200,
          2350,
          2036,
          2031,
          2558,
          2028,
          2065
        ],
        "WindowCenter": [
          850.0,
          850.0,
          849.0,
          849.0,
          848.0,
          847.0,
          846.0,
          846.0,
          846.0,
          845.0,
          845.0,
          849.0,
          847.0,
          847.0,
          845.0,
          845.0,
          847.0,
          846.0,
          848.0,
          847.0,
          845.0,
          845.0,
          844.0,
          847.0,
          847.0,
          843.0,
          844.0,
          843.0,
          846.0,
          846.0,
          845.0,
          840.0,
          842.0,
          844.0,
          844.0,
          844.0,
          844.0,
          846.0,
          845.0,
          847.0,
          847.0,
          846.0,
          845.0,
          848.0,
          850.0,
          848.0,
          851.0,
          846.0,
          847.0,
          848.0,
          847.0,
          853.0,
          849.0,
          851.0,
          846.0,
          850.0,
          849.0,
          848.0,
          848.0,
          846.0,
          844.0,
          849.0,
          847.0,
          847.0,
          850.0,
          850.0,
          849.0,
          850.0,
          848.0,
          849.0,
          851.0,
          849.0,
          850.0,
          850.0,
          847.0,
          851.0,
          849.0,
          850.0,
          849.0,
          850.0,
          849.0,
          851.0,
          850.0,
          851.0,
          850.0,
          848.0,
          848.0,
          848.0,
          848.0,
          849.0,
          849.0,
          850.0,
          847.0,
          849.0,
          852.0,
          850.0,
          850.0,
          850.0,
          848.0,
          851.0,
          853.0,
          847.0,
          848.0,
          848.0,
          848.0,
          849.0,
          849.0,
          846.0,
          848.0,
          848.0,
          849.0,
          850.0,
          848.0,
          851.0,
          849.0,
          850.0,
          850.0,
          851.0,
          848.0,
          850.0,
          850.0,
          848.0,
          850.0,
          851.0,
          849.0,
          850.0
        ],
        "WindowWidth": [
          1819.0,
          1819.0,
          1814.0,
          1814.0,
          1811.0,
          1809.0,
          1807.0,
          1809.0,
          1806.0,
          1804.0,
          1806.0,
          1812.0,
          1810.0,
          1811.0,
          1804.0,
          1805.0,
          1809.0,
          1806.0,
          1812.0,
          1810.0,
          1806.0,
          1806.0,
          1800.0,
          1812.0,
          1810.0,
          1799.0,
          1802.0,
          1800.0,
          1808.0,
          1810.0,
          1805.0,
          1790.0,
          1798.0,
          1800.0,
          1803.0,
          1801.0,
          1799.0,
          1808.0,
          1805.0,
          1810.0,
          1813.0,
          1806.0,
          1803.0,
          1812.0,
          1815.0,
          1813.0,
          1818.0,
          1808.0,
          1811.0,
          1813.0,
          1806.0,
          1826.0,
          1814.0,
          1817.0,
          1807.0,
          1820.0,
          1816.0,
          1811.0,
          1812.0,
          1806.0,
          1801.0,
          1815.0,
          1811.0,
          1808.0,
          1815.0,
          1816.0,
          1814.0,
          1817.0,
          1812.0,
          1817.0,
          1820.0,
          1815.0,
          1819.0,
          1817.0,
          1810.0,
          1822.0,
          1815.0,
          1818.0,
          1817.0,
          1816.0,
          1814.0,
          1822.0,
          1818.0,
          1819.0,
          1816.0,
          1813.0,
          1814.0,
          1814.0,
          1811.0,
          1815.0,
          1815.0,
          1817.0,
          1810.0,
          1820.0,
          1822.0,
          1819.0,
          1818.0,
          1817.0,
          1813.0,
          1821.0,
          1824.0,
          1811.0,
          1812.0,
          1812.0,
          1814.0,
          1813.0,
          1812.0,
          1807.0,
          1809.0,
          1812.0,
          1813.0,
          1817.0,
          1813.0,
          1820.0,
          1818.0,
          1815.0,
          1816.0,
          1819.0,
          1811.0,
          1819.0,
          1817.0,
          1813.0,
          1818.0,
          1821.0,
          1815.0,
          1817.0
        ]
      },
      "slices": {}
    }
  },
  "dummy_trs": 0,
  "dvars_nstd": 38.42409695464,
  "dvars_std": 1.3144700308799997,
  "dvars_vstd": 1.0749467926400005,
  "efc": 0.580257639300794,
  "fber": 1650.04052734375,
  "fd_mean": 0.6116395441644414,
  "fd_num": 117,
  "fd_perc": 92.85714285714286,
  "fwhm_avg": 1.619923809142615,
  "fwhm_x": 1.4797433333333334,
  "fwhm_y": 1.8622766666666666,
  "fwhm_z": 1.5177514274278452,
  "gcor": 0.0396026,
  "gsr_x": -0.013052127324044704,
  "gsr_y": 0.05273375287652016,
  "provenance": {
    "md5sum": "56b47fface9707f4a416b38c7dcfe367",
    "settings": {
      "fd_thres": 0.2,
      "testing": false
    },
    "software": "mriqc",
    "version": "22.0.1",
    "webapi_port": null,
    "webapi_url": "https://mriqc.nimh.nih.gov/api/v1"
  },
  "size_t": 126,
  "size_x": 64,
  "size_y": 64,
  "size_z": 34,
  "snr": 6.609452320400038,
  "spacing_tr": 2.3399999141693115,
  "spacing_x": 3.0,
  "spacing_y": 3.0,
  "spacing_z": 3.3000001907348633,
  "summary_bg_k": 62.71051607166716,
  "summary_bg_mad": 9.884016675263556,
  "summary_bg_mean": 35.416324615478516,
  "summary_bg_median": 23.944446563720703,
  "summary_bg_n": 70001.0,
  "summary_bg_p05": 12.904762268066406,
  "summary_bg_p95": 91.79365539550781,
  "summary_bg_stdv": 46.06804275512695,
  "summary_fg_k": 2.222617253249326,
  "summary_fg_mad": 146.97769491923208,
  "summary_fg_mean": 997.5816650390625,
  "summary_fg_median": 992.9683227539062,
  "summary_fg_n": 36271.0,
  "summary_fg_p05": 784.1627197265625,
  "summary_fg_p95": 1226.448486328125,
  "summary_fg_stdv": 150.23251342773438,
  "tsnr": 50.82781156874262
}