{
  "aor": 0.007010960000000002,
  "aqi": 0.01931851152,
  "bids_meta": {
    "AcquisitionMatrixPE": 64,
    "AcquisitionNumber": 1,
    "AcquisitionTime": "09:54:12.547500",
    "BandwidthPerPixelPhaseEncode": 24.038,
    "BaseResolution": 64,
    "BodyPartExamined": "HEAD",
    "ConsistencyInfo": "N4_VD13A_LATEST_20120616",
    "ConversionSoftware": "dcm2niix",
    "ConversionSoftwareVersion": "v1.0.20181125  GCC6.3.0",
    "DerivedVendorReportedEchoSpacing": 0.000650012,
    "DeviceSerialNumber": "45250",
    "DwellTime": 4.6e-06,
    "EchoTime": 0.033,
    "EchoTrainLength": 64,
    "EffectiveEchoSpacing": 0.000650012,
    "FlipAngle": 90,
    "ImageOrientationPatientDICOM": [
      0.997366,
      -0.071896,
      -0.00955567,
      0.0714922,
      0.996739,
      -0.037424
    ],
    "ImageType": [
      "ORIGINAL",
      "PRIMARY",
      "M",
      "ND",
      "NORM",
      "MOSAIC"
    ],
    "ImagingFrequency": 123.214,
    "InPlanePhaseEncodingDirectionDICOM": "COL",
    "InstitutionAddress": "Kopernikusstr._26_Graz_Graz_AT_8010",
    "InstitutionName": "KFU",
    "InstitutionalDepartmentName": "Department",
    "MRAcquisitionType": "2D",
    "MagneticFieldStrength": 3,
    "Manufacturer": "Siemens",
    "ManufacturersModelName": "Skyra",
    "Modality": "MR",
    "PartialFourier": 1,
    "PatientPosition": "HFS",
    "PercentPhaseFOV": 100,
    "PhaseEncodingDirection": "j-",
    "PhaseEncodingSteps": 64,
    "PhaseResolution": 1,
    "PixelBandwidth": 1700,
    "ProcedureStepDescription": "KFU_Entw-Psy",
    "ProtocolName": "fMRI_1",
    "PulseSequenceDetails": "%SiemensSeq%_ep2d_pace",
    "ReceiveCoilActiveElements": "HE1-4",
    "ReceiveCoilName": "HeadNeck_20",
    "ReconMatrixPE": 64,
    "RepetitionTime": 2.34,
    "SAR": 0.167502,
    "ScanOptions": "FS",
    "ScanningSequence": "EP",
    "SequenceName": "_epfid2d1_64",
    "SequenceVariant": "SK",
    "SeriesDescription": "fMRI_1",
    "SeriesNumber": 2,
    "ShimSetting": [
      -1606,
      -3739,
      -4227,
      709,
      293,
      15,
      475,
      -182
    ],
    "SliceThickness": 3,
    "SliceTiming": [
      2.25,
      2.1825,
      2.115,
      2.045,
      1.9775,
      1.91,
      1.8425,
      1.7725,
      1.705,
      1.6375,
      1.5675,
      1.5,
      1.4325,
      1.365,
      1.295,
      1.2275,
      1.16,
      1.09,
      1.0225,
      0.955,
      0.885,
      0.8175,
      0.75,
      0.6825,
      0.6125,
      0.545,
      0.4775,
      0.4075,
      0.34,
      0.2725,
      0.205,
      0.135,
      0.0675,
      0
    ],
    "SoftwareVersions": "syngo_MR_D13",
    "SpacingBetweenSlices": 3.3,
    "StationName": "FBMTMR1",
    "TaskName": "read",
    "TotalReadoutTime": 0.0409508,
    "TxRefAmp": 329.875,
    "dataset": "ds003126",
    "dcmmeta_affine": [
      [
        -2.9920990467071533,
        0.21447652578353882,
        -0.04030996561050415,
        87.69745635986328
      ],
      [
        0.21568790078163147,
        2.9902164936065674,
        -0.12091951817274094,
        -120.82237243652344
      ],
      [
        -0.028667006641626358,
        0.1122719794511795,
        3.2975375652313232,
        -10.797073364257812
      ],
      [
        0.0,
        0.0,
        0.0,
        1.0
      ]
    ],
    "dcmmeta_reorient_transform": [
      [
        0.0,
        -1.0,
        0.0,
        63.0
      ],
      [
        1.0,
        0.0,
        0.0,
        0.0
      ],
      [
        0.0,
        0.0,
        1.0,
        0.0
      ],
      [
        0.0,
        0.0,
        0.0,
        1.0
      ]
    ],
    "dcmmeta_shape": [
      64,
      64,
      34,
      126
    ],
    "dcmmeta_slice_dim": 2,
    "dcmmeta_version": 0.6,
    "global": {
      "const": {
        "AcquisitionMatrix": [
          64,
          0,
          0,
          64
        ],
        "AngioFlag": "N",
        "BitsAllocated": 16,
        "BitsStored": 12,
        "BodyPartExamined": "HEAD",
        "Columns": 384,
        "EchoNumbers": 1,
        "EchoTime": 33.0,
        "EchoTrainLength": 64,
        "FlipAngle": 90.0,
        "HighBit": 11,
        "ImageOrientationPatient": [
          0.99736636149368,
          -0.0718959675976,
          -0.0095556686868,
          0.07149217655221,
          0.99673883913308,
          -0.0374239930454
        ],
        "ImagePositionPatient": [
          -614.26157690014,
          -511.48584784047,
          18.826299256856
        ],
        "ImageType": [
          "ORIGINAL",
          "PRIMARY",
          "M",
          "ND",
          "NORM",
          "MOSAIC"
        ],
        "ImagedNucleus": "1H",
        "ImagingFrequency": 123.214459,
        "InPlanePhaseEncodingDirection": "COL",
        "MRAcquisitionType": "2D",
        "MagneticFieldStrength": 3.0,
        "Manufacturer": "SIEMENS",
        "ManufacturerModelName": "Skyra",
        "Modality": "MR",
        "NumberOfAverages": 1.0,
        "NumberOfPhaseEncodingSteps": 64,
        "PercentPhaseFieldOfView": 100.0,
        "PercentSampling": 100.0,
        "PerformedProcedureStepStartTime": "094802.655000",
        "PhotometricInterpretation": "MONOCHROME2",
        "PixelBandwidth": 1700.0,
        "PixelRepresentation": 0,
        "PixelSpacing": [
          3.0,
          3.0
        ],
        "ProtocolName": "fMRI_1",
        "RepetitionTime": 2340.0,
        "Rows": 384,
        "SAR": 0.16750170707563,
        "SamplesPerPixel": 1,
        "ScanOptions": "FS",
        "ScanningSequence": "EP",
        "SequenceName": "*epfid2d1_64",
        "SequenceVariant": "SK",
        "SeriesDescription": "fMRI_1",
        "SeriesNumber": 2,
        "SeriesTime": "095420.212000",
        "SliceLocation": -7.433046210101,
        "SliceThickness": 3.0,
        "SmallestImagePixelValue": 0,
        "SoftwareVersions": "syngo MR D13",
        "SpacingBetweenSlices": 3.3000000981435,
        "SpecificCharacterSet": "ISO_IR 100",
        "StudyID": "1",
        "StudyTime": "094802.605000",
        "TransmitCoilName": "Body",
        "VariableFlipAngleFlag": "N",
        "WindowCenterWidthExplanation": "Algo1",
        "dBdt": 0.0
      },
      "slices": {}
    },
    "modality": "bold",
    "run_id": 1,
    "session_id": "2",
    "subject_id": "047EPKL014007",
    "task_id": "read",
    "time": {
      "samples": {
        "AcquisitionNumber": [
          1,
          2,
          3,
          4,
          5,
          6,
          7,
          8,
          9,
          10,
          11,
          12,
          13,
          14,
          15,
          16,
          17,
          18,
          19,
          20,
          21,
          22,
          23,
          24,
          25,
          26,
          27,
          28,
          29,
          30,
          31,
          32,
          33,
          34,
          35,
          36,
          37,
          38,
          39,
          40,
          41,
          42,
          43,
          44,
          45,
          46,
          47,
          48,
          49,
          50,
          51,
          52,
          53,
          54,
          55,
          56,
          57,
          58,
          59,
          60,
          61,
          62,
          63,
          64,
          65,
          66,
          67,
          68,
          69,
          70,
          71,
          72,
          73,
          74,
          75,
          76,
          77,
          78,
          79,
          80,
          81,
          82,
          83,
          84,
          85,
          86,
          87,
          88,
          89,
          90,
          91,
          92,
          93,
          94,
          95,
          96,
          97,
          98,
          99,
          100,
          101,
          102,
          103,
          104,
          105,
          106,
          107,
          108,
          109,
          110,
          111,
          112,
          113,
          114,
          115,
          116,
          117,
          118,
          119,
          120,
          121,
          122,
          123,
          124,
          125,
          126
        ],
        "AcquisitionTime": [
          "095412.547500",
          "095414.887500",
          "095417.227500",
          "095419.567500",
          "095421.907500",
          "095424.247500",
          "095426.587500",
          "095428.927500",
          "095431.267500",
          "095433.607500",
          "095435.947500",
          "095438.287500",
          "095440.627500",
          "095442.967500",
          "095445.307500",
          "095447.647500",
          "095449.987500",
          "095452.327500",
          "095454.667500",
          "095457.007500",
          "095459.347500",
          "095501.687500",
          "095504.027500",
          "095506.367500",
          "095508.707500",
          "095511.047500",
          "095513.387500",
          "095515.727500",
          "095518.067500",
          "095520.407500",
          "095522.747500",
          "095525.087500",
          "095527.427500",
          "095529.767500",
          "095532.107500",
          "095534.447500",
          "095536.787500",
          "095539.127500",
          "095541.467500",
          "095543.807500",
          "095546.147500",
          "095548.487500",
          "095550.827500",
          "095553.167500",
          "095555.507500",
          "095557.847500",
          "095600.187500",
          "095602.527500",
          "095604.867500",
          "095607.207500",
          "095609.547500",
          "095611.887500",
          "095614.227500",
          "095616.567500",
          "095618.907500",
          "095621.247500",
          "095623.587500",
          "095625.927500",
          "095628.267500",
          "095630.607500",
          "095632.947500",
          "095635.287500",
          "095637.627500",
          "095639.967500",
          "095642.307500",
          "095644.647500",
          "095646.987500",
          "095649.327500",
          "095651.667500",
          "095654.007500",
          "095656.347500",
          "095658.687500",
          "095701.027500",
          "095703.367500",
          "095705.707500",
          "095708.047500",
          "095710.387500",
          "095712.727500",
          "095715.067500",
          "095717.407500",
          "095719.747500",
          "095722.087500",
          "095724.427500",
          "095726.767500",
          "095729.107500",
          "095731.447500",
          "095733.787500",
          "095736.127500",
          "095738.467500",
          "095740.807500",
          "095743.147500",
          "095745.487500",
          "095747.827500",
          "095750.167500",
          "095752.507500",
          "095754.847500",
          "095757.187500",
          "095759.527500",
          "095801.867500",
          "095804.207500",
          "095806.547500",
          "095808.887500",
          "095811.227500",
          "095813.567500",
          "095815.907500",
          "095818.247500",
          "095820.587500",
          "095822.927500",
          "095825.267500",
          "095827.607500",
          "095829.947500",
          "095832.287500",
          "095834.627500",
          "095836.967500",
          "095839.307500",
          "095841.647500",
          "095843.987500",
          "095846.327500",
          "095848.667500",
          "095851.007500",
          "095853.347500",
          "095855.687500",
          "095858.027500",
          "095900.367500",
          "095902.707500",
          "095905.047500"
        ],
        "ContentTime": [
          "095420.217000",
          "095420.221000",
          "095420.230000",
          "095520.211000",
          "095520.214000",
          "095520.217000",
          "095520.228000",
          "095520.231000",
          "095520.234000",
          "095520.245000",
          "095520.248000",
          "095520.251000",
          "095520.254000",
          "095520.256000",
          "095520.259000",
          "095520.262000",
          "095520.265000",
          "095520.267000",
          "095520.271000",
          "095520.273000",
          "095520.276000",
          "095520.278000",
          "095520.281000",
          "095520.284000",
          "095520.287000",
          "095520.289000",
          "095520.292000",
          "095520.295000",
          "095520.298000",
          "095620.211000",
          "095620.214000",
          "095620.217000",
          "095620.220000",
          "095620.223000",
          "095620.225000",
          "095620.228000",
          "095620.231000",
          "095620.233000",
          "095620.236000",
          "095620.239000",
          "095620.242000",
          "095620.244000",
          "095620.247000",
          "095620.250000",
          "095620.252000",
          "095620.255000",
          "095620.257000",
          "095620.260000",
          "095620.263000",
          "095620.266000",
          "095620.274000",
          "095620.277000",
          "095620.280000",
          "095620.282000",
          "095620.285000",
          "095720.211000",
          "095720.214000",
          "095720.217000",
          "095720.220000",
          "095720.230000",
          "095720.233000",
          "095720.235000",
          "095720.238000",
          "095720.241000",
          "095720.243000",
          "095720.246000",
          "095720.249000",
          "095720.251000",
          "095720.254000",
          "095720.257000",
          "095720.259000",
          "095720.262000",
          "095720.264000",
          "095720.267000",
          "095720.270000",
          "095720.272000",
          "095720.275000",
          "095720.278000",
          "095720.280000",
          "095720.283000",
          "095820.210000",
          "095820.213000",
          "095820.223000",
          "095820.226000",
          "095820.228000",
          "095820.231000",
          "095820.234000",
          "095820.237000",
          "095820.239000",
          "095820.242000",
          "095820.245000",
          "095820.248000",
          "095820.251000",
          "095820.253000",
          "095820.256000",
          "095820.259000",
          "095820.266000",
          "095820.269000",
          "095820.272000",
          "095820.274000",
          "095820.277000",
          "095820.280000",
          "095820.283000",
          "095820.286000",
          "095820.288000",
          "095820.291000",
          "095907.548000",
          "095907.552000",
          "095907.555000",
          "095907.557000",
          "095907.560000",
          "095907.563000",
          "095907.568000",
          "095907.571000",
          "095907.575000",
          "095907.579000",
          "095907.583000",
          "095907.588000",
          "095907.591000",
          "095907.596000",
          "095907.599000",
          "095907.602000",
          "095907.604000",
          "095907.609000",
          "095907.612000",
          "095907.617000"
        ],
        "InstanceCreationTime": [
          "095420.217000",
          "095420.221000",
          "095420.230000",
          "095520.211000",
          "095520.214000",
          "095520.217000",
          "095520.228000",
          "095520.231000",
          "095520.234000",
          "095520.245000",
          "095520.248000",
          "095520.251000",
          "095520.254000",
          "095520.256000",
          "095520.259000",
          "095520.262000",
          "095520.265000",
          "095520.267000",
          "095520.271000",
          "095520.273000",
          "095520.276000",
          "095520.278000",
          "095520.281000",
          "095520.284000",
          "095520.287000",
          "095520.289000",
          "095520.292000",
          "095520.295000",
          "095520.298000",
          "095620.211000",
          "095620.214000",
          "095620.217000",
          "095620.220000",
          "095620.223000",
          "095620.225000",
          "095620.228000",
          "095620.231000",
          "095620.233000",
          "095620.236000",
          "095620.239000",
          "095620.242000",
          "095620.244000",
          "095620.247000",
          "095620.250000",
          "095620.252000",
          "095620.255000",
          "095620.257000",
          "095620.260000",
          "095620.263000",
          "095620.266000",
          "095620.274000",
          "095620.277000",
          "095620.280000",
          "095620.282000",
          "095620.285000",
          "095720.211000",
          "095720.214000",
          "095720.217000",
          "095720.220000",
          "095720.230000",
          "095720.233000",
          "095720.235000",
          "095720.238000",
          "095720.241000",
          "095720.243000",
          "095720.246000",
          "095720.249000",
          "095720.251000",
          "095720.254000",
          "095720.257000",
          "095720.259000",
          "095720.262000",
          "095720.264000",
          "095720.267000",
          "095720.270000",
          "095720.272000",
          "095720.275000",
          "095720.278000",
          "095720.280000",
          "095720.283000",
          "095820.210000",
          "095820.213000",
          "095820.223000",
          "095820.226000",
          "095820.228000",
          "095820.231000",
          "095820.234000",
          "095820.237000",
          "095820.239000",
          "095820.242000",
          "095820.245000",
          "095820.248000",
          "095820.251000",
          "095820.253000",
          "095820.256000",
          "095820.259000",
          "095820.266000",
          "095820.269000",
          "095820.272000",
          "095820.274000",
          "095820.277000",
          "095820.280000",
          "095820.283000",
          "095820.286000",
          "095820.288000",
          "095820.291000",
          "095907.548000",
          "095907.552000",
          "095907.555000",
          "095907.557000",
          "095907.560000",
          "095907.563000",
          "095907.568000",
          "095907.571000",
          "095907.575000",
          "095907.579000",
          "095907.583000",
          "095907.588000",
          "095907.591000",
          "095907.596000",
          "095907.599000",
          "095907.602000",
          "095907.604000",
          "095907.609000",
          "095907.612000",
          "095907.617000"
        ],
        "InstanceNumber": [
          1,
          2,
          3,
          4,
          5,
          6,
          7,
          8,
          9,
          10,
          11,
          12,
          13,
          14,
          15,
          16,
          17,
          18,
          19,
          20,
          21,
          22,
          23,
          24,
          25,
          26,
          27,
          28,
          29,
          30,
          31,
          32,
          33,
          34,
          35,
          36,
          37,
          38,
          39,
          40,
          41,
          42,
          43,
          44,
          45,
          46,
          47,
          48,
          49,
          50,
          51,
          52,
          53,
          54,
          55,
          56,
          57,
          58,
          59,
          60,
          61,
          62,
          63,
          64,
          65,
          66,
          67,
          68,
          69,
          70,
          71,
          72,
          73,
          74,
          75,
          76,
          77,
          78,
          79,
          80,
          81,
          82,
          83,
          84,
          85,
          86,
          87,
          88,
          89,
          90,
          91,
          92,
          93,
          94,
          95,
          96,
          97,
          98,
          99,
          100,
          101,
          102,
          103,
          104,
          105,
          106,
          107,
          108,
          109,
          110,
          111,
          112,
          113,
          114,
          115,
          116,
          117,
          118,
          119,
          120,
          121,
          122,
          123,
          124,
          125,
          126
        ],
        "LargestImagePixelValue": [
          2359,
          2954,
          2907,
          2060,
          2002,
          2145,
          2695,
          2501,
          1864,
          2533,
          1946,
          2042,
          2095,
          1974,
          1926,
          2434,
          2183,
          1936,
          2578,
          2265,
          1920,
          2660,
          2281,
          1939,
          2531,
          2219,
          2009,
          2142,
          2678,
          2119,
          1976,
          2114,
          2864,
          1914,
          2363,
          3099,
          2251,
          1985,
          2600,
          1948,
          2517,
          2219,
          1911,
          1943,
          1978,
          2247,
          1938,
          2537,
          2709,
          1927,
          1962,
          2767,
          2175,
          2325,
          1910,
          2423,
          2003,
          1927,
          2558,
          2176,
          2720,
          2265,
          2015,
          2134,
          2799,
          2336,
          2123,
          1926,
          2448,
          2760,
          2116,
          1916,
          2165,
          2742,
          2352,
          2188,
          2550,
          2196,
          1892,
          2302,
          1879,
          2841,
          2920,
          2045,
          1882,
          2392,
          2531,
          2421,
          2273,
          2543,
          2231,
          1929,
          2197,
          1914,
          2195,
          2784,
          2081,
          1916,
          2514,
          2734,
          1961,
          1910,
          2002,
          2490,
          2652,
          1932,
          2238,
          2721,
          2080,
          2404,
          2091,
          1910,
          1925,
          2764,
          2473,
          2589,
          2342,
          2103,
          1961,
          2052,
          2314,
          2021,
          2489,
          2066,
          1994,
          1963
        ],
        "WindowCenter": [
          851.0,
          850.0,
          848.0,
          847.0,
          849.0,
          848.0,
          845.0,
          845.0,
          843.0,
          847.0,
          845.0,
          845.0,
          843.0,
          844.0,
          844.0,
          844.0,
          846.0,
          846.0,
          845.0,
          846.0,
          845.0,
          846.0,
          846.0,
          846.0,
          846.0,
          846.0,
          844.0,
          844.0,
          842.0,
          844.0,
          844.0,
          845.0,
          845.0,
          844.0,
          843.0,
          844.0,
          842.0,
          845.0,
          844.0,
          841.0,
          842.0,
          843.0,
          842.0,
          844.0,
          843.0,
          844.0,
          845.0,
          846.0,
          843.0,
          843.0,
          841.0,
          843.0,
          844.0,
          844.0,
          845.0,
          844.0,
          842.0,
          846.0,
          847.0,
          844.0,
          844.0,
          844.0,
          846.0,
          847.0,
          847.0,
          844.0,
          844.0,
          845.0,
          843.0,
          844.0,
          845.0,
          846.0,
          847.0,
          846.0,
          847.0,
          845.0,
          845.0,
          845.0,
          846.0,
          848.0,
          846.0,
          848.0,
          842.0,
          845.0,
          844.0,
          847.0,
          847.0,
          845.0,
          847.0,
          845.0,
          847.0,
          844.0,
          846.0,
          844.0,
          843.0,
          845.0,
          846.0,
          847.0,
          847.0,
          847.0,
          845.0,
          847.0,
          850.0,
          851.0,
          848.0,
          846.0,
          847.0,
          849.0,
          846.0,
          847.0,
          846.0,
          847.0,
          849.0,
          850.0,
          848.0,
          846.0,
          847.0,
          846.0,
          846.0,
          847.0,
          849.0,
          848.0,
          849.0,
          847.0,
          847.0,
          849.0
        ],
        "WindowWidth": [
          1822.0,
          1820.0,
          1814.0,
          1810.0,
          1812.0,
          1812.0,
          1806.0,
          1804.0,
          1798.0,
          1811.0,
          1803.0,
          1803.0,
          1800.0,
          1801.0,
          1801.0,
          1802.0,
          1807.0,
          1806.0,
          1806.0,
          1805.0,
          1805.0,
          1807.0,
          1808.0,
          1808.0,
          1806.0,
          1806.0,
          1801.0,
          1802.0,
          1798.0,
          1803.0,
          1802.0,
          1805.0,
          1807.0,
          1803.0,
          1801.0,
          1803.0,
          1797.0,
          1805.0,
          1803.0,
          1794.0,
          1799.0,
          1799.0,
          1797.0,
          1801.0,
          1799.0,
          1803.0,
          1804.0,
          1807.0,
          1800.0,
          1798.0,
          1793.0,
          1802.0,
          1800.0,
          1803.0,
          1804.0,
          1802.0,
          1796.0,
          1808.0,
          1813.0,
          1800.0,
          1801.0,
          1803.0,
          1807.0,
          1812.0,
          1812.0,
          1801.0,
          1800.0,
          1807.0,
          1801.0,
          1805.0,
          1805.0,
          1808.0,
          1809.0,
          1809.0,
          1809.0,
          1806.0,
          1807.0,
          1806.0,
          1808.0,
          1817.0,
          1810.0,
          1814.0,
          1799.0,
          1803.0,
          1801.0,
          1813.0,
          1811.0,
          1808.0,
          1810.0,
          1809.0,
          1809.0,
          1801.0,
          1808.0,
          1803.0,
          1800.0,
          1806.0,
          1806.0,
          1809.0,
          1810.0,
          1812.0,
          1803.0,
          1813.0,
          1818.0,
          1821.0,
          1814.0,
          1808.0,
          1814.0,
          1815.0,
          1807.0,
          1811.0,
          1808.0,
          1811.0,
          1815.0,
          1820.0,
          1813.0,
          1810.0,
          1811.0,
          1808.0,
          1809.0,
          1811.0,
          1815.0,
          1814.0,
          1816.0,
          1811.0,
          1811.0,
          1814.0
        ]
      },
      "slices": {}
    }
  },
  "dummy_trs": 1,
  "dvars_nstd": 42.385633653387096,
  "dvars_std": 1.3128536043548382,
  "dvars_vstd": 1.0651582516935483,
  "efc": 0.5794294948114317,
  "fber": 1678.1168212890625,
  "fd_mean": 0.6900868173069129,
  "fd_num": 113,
  "fd_perc": 90.4,
  "fwhm_avg": 1.6262446174082028,
  "fwhm_x": 1.4952266666666667,
  "fwhm_y": 1.8753466666666665,
  "fwhm_z": 1.5081605188912757,
  "gcor": 0.0316804,
  "gsr_x": -0.011222070083022118,
  "gsr_y": 0.051267292350530624,
  "provenance": {
    "md5sum": "d8b154f65aed0165fed1e3dc74e7bdb7",
    "settings": {
      "fd_thres": 0.2,
      "testing": false
    },
    "software": "mriqc",
    "version": "22.0.1",
    "webapi_port": null,
    "webapi_url": "https://mriqc.nimh.nih.gov/api/v1"
  },
  "size_t": 125,
  "size_x": 64,
  "size_y": 64,
  "size_z": 34,
  "snr": 6.678967620816844,
  "spacing_tr": 2.3399999141693115,
  "spacing_x": 3.0,
  "spacing_y": 3.0,
  "spacing_z": 3.3000001907348633,
  "summary_bg_k": 62.85211937587184,
  "summary_bg_mad": 9.82075790979883,
  "summary_bg_mean": 35.000144958496094,
  "summary_bg_median": 23.624000549316406,
  "summary_bg_n": 70159.0,
  "summary_bg_p05": 12.800000190734863,
  "summary_bg_p95": 90.65840606689432,
  "summary_bg_stdv": 44.85539245605469,
  "summary_fg_k": 2.323627021130708,
  "summary_fg_mad": 145.34243462317406,
  "summary_fg_mean": 994.5609130859375,
  "summary_fg_median": 990.83203125,
  "summary_fg_n": 36251.0,
  "summary_fg_p05": 783.3400573730469,
  "summary_fg_p95": 1220.6680297851562,
  "summary_fg_stdv": 148.34902954101562,
  "tsnr": 46.49099905625917
}