{
  "aor": 0.009973149606299211,
  "aqi": 0.017756326141732285,
  "bids_meta": {
    "AcquisitionMatrixPE": 64,
    "AcquisitionNumber": 1,
    "AcquisitionTime": "10:05:45.000000",
    "BandwidthPerPixelPhaseEncode": 24.038,
    "BaseResolution": 64,
    "BodyPartExamined": "HEAD",
    "ConsistencyInfo": "N4_VD13A_LATEST_20120616",
    "ConversionSoftware": "dcm2niix",
    "ConversionSoftwareVersion": "v1.0.20181125  GCC6.3.0",
    "DerivedVendorReportedEchoSpacing": 0.000650012,
    "DeviceSerialNumber": "45250",
    "DwellTime": 4.6e-06,
    "EchoTime": 0.033,
    "EchoTrainLength": 64,
    "EffectiveEchoSpacing": 0.000650012,
    "FlipAngle": 90,
    "ImageOrientationPatientDICOM": [
      0.997366,
      -0.071896,
      -0.00955567,
      0.0714922,
      0.996739,
      -0.037424
    ],
    "ImageType": [
      "ORIGINAL",
      "PRIMARY",
      "M",
      "ND",
      "NORM",
      "MOSAIC"
    ],
    "ImagingFrequency": 123.214,
    "InPlanePhaseEncodingDirectionDICOM": "COL",
    "InstitutionAddress": "Kopernikusstr._26_Graz_Graz_AT_8010",
    "InstitutionName": "KFU",
    "InstitutionalDepartmentName": "Department",
    "MRAcquisitionType": "2D",
    "MagneticFieldStrength": 3,
    "Manufacturer": "Siemens",
    "ManufacturersModelName": "Skyra",
    "Modality": "MR",
    "PartialFourier": 1,
    "PatientPosition": "HFS",
    "PercentPhaseFOV": 100,
    "PhaseEncodingDirection": "j-",
    "PhaseEncodingSteps": 64,
    "PhaseResolution": 1,
    "PixelBandwidth": 1700,
    "ProcedureStepDescription": "KFU_Entw-Psy",
    "ProtocolName": "fMRI_3",
    "PulseSequenceDetails": "%SiemensSeq%_ep2d_pace",
    "ReceiveCoilActiveElements": "HE1-4",
    "ReceiveCoilName": "HeadNeck_20",
    "ReconMatrixPE": 64,
    "RepetitionTime": 2.34,
    "SAR": 0.167502,
    "ScanOptions": "FS",
    "ScanningSequence": "EP",
    "SequenceName": "_epfid2d1_64",
    "SequenceVariant": "SK",
    "SeriesDescription": "fMRI_3",
    "SeriesNumber": 8,
    "ShimSetting": [
      -1606,
      -3739,
      -4227,
      709,
      293,
      15,
      475,
      -182
    ],
    "SliceThickness": 3,
    "SliceTiming": [
      2.2525,
      2.1825,
      2.115,
      2.0475,
      1.9775,
      1.91,
      1.8425,
      1.775,
      1.705,
      1.6375,
      1.57,
      1.5,
      1.4325,
      1.365,
      1.2975,
      1.2275,
      1.16,
      1.0925,
      1.0225,
      0.955,
      0.8875,
      0.8175,
      0.75,
      0.6825,
      0.615,
      0.545,
      0.4775,
      0.41,
      0.34,
      0.2725,
      0.205,
      0.1375,
      0.0675,
      0
    ],
    "SoftwareVersions": "syngo_MR_D13",
    "SpacingBetweenSlices": 3.3,
    "StationName": "FBMTMR1",
    "TaskName": "read",
    "TotalReadoutTime": 0.0409508,
    "TxRefAmp": 329.875,
    "dataset": "ds003126",
    "dcmmeta_affine": [
      [
        -2.9920990467071533,
        0.21447652578353882,
        -0.04030996561050415,
        87.69745635986328
      ],
      [
        0.21568790078163147,
        2.9902164936065674,
        -0.12091951817274094,
        -120.82237243652344
      ],
      [
        -0.028667006641626358,
        0.1122719794511795,
        3.2975375652313232,
        -10.797073364257812
      ],
      [
        0.0,
        0.0,
        0.0,
        1.0
      ]
    ],
    "dcmmeta_reorient_transform": [
      [
        0.0,
        -1.0,
        0.0,
        63.0
      ],
      [
        1.0,
        0.0,
        0.0,
        0.0
      ],
      [
        0.0,
        0.0,
        1.0,
        0.0
      ],
      [
        0.0,
        0.0,
        0.0,
        1.0
      ]
    ],
    "dcmmeta_shape": [
      64,
      64,
      34,
      127
    ],
    "dcmmeta_slice_dim": 2,
    "dcmmeta_version": 0.6,
    "global": {
      "const": {
        "AcquisitionMatrix": [
          64,
          0,
          0,
          64
        ],
        "AngioFlag": "N",
        "BitsAllocated": 16,
        "BitsStored": 12,
        "BodyPartExamined": "HEAD",
        "Columns": 384,
        "EchoNumbers": 1,
        "EchoTime": 33.0,
        "EchoTrainLength": 64,
        "FlipAngle": 90.0,
        "HighBit": 11,
        "ImageOrientationPatient": [
          0.99736636149368,
          -0.0718959675976,
          -0.0095556686868,
          0.07149217655221,
          0.99673883913308,
          -0.0374239930454
        ],
        "ImagePositionPatient": [
          -614.26157690014,
          -511.48584784047,
          18.826299256856
        ],
        "ImageType": [
          "ORIGINAL",
          "PRIMARY",
          "M",
          "ND",
          "NORM",
          "MOSAIC"
        ],
        "ImagedNucleus": "1H",
        "ImagingFrequency": 123.214472,
        "InPlanePhaseEncodingDirection": "COL",
        "MRAcquisitionType": "2D",
        "MagneticFieldStrength": 3.0,
        "Manufacturer": "SIEMENS",
        "ManufacturerModelName": "Skyra",
        "Modality": "MR",
        "NumberOfAverages": 1.0,
        "NumberOfPhaseEncodingSteps": 64,
        "PercentPhaseFieldOfView": 100.0,
        "PercentSampling": 100.0,
        "PerformedProcedureStepStartTime": "094802.655000",
        "PhotometricInterpretation": "MONOCHROME2",
        "PixelBandwidth": 1700.0,
        "PixelRepresentation": 0,
        "PixelSpacing": [
          3.0,
          3.0
        ],
        "ProtocolName": "fMRI_3",
        "RepetitionTime": 2340.0,
        "Rows": 384,
        "SAR": 0.16750170707563,
        "SamplesPerPixel": 1,
        "ScanOptions": "FS",
        "ScanningSequence": "EP",
        "SequenceName": "*epfid2d1_64",
        "SequenceVariant": "SK",
        "SeriesDescription": "fMRI_3",
        "SeriesNumber": 8,
        "SeriesTime": "100644.568000",
        "SliceLocation": -7.433046210101,
        "SliceThickness": 3.0,
        "SmallestImagePixelValue": 0,
        "SoftwareVersions": "syngo MR D13",
        "SpacingBetweenSlices": 3.3000000981435,
        "SpecificCharacterSet": "ISO_IR 100",
        "StudyID": "1",
        "StudyTime": "094802.605000",
        "TransmitCoilName": "Body",
        "VariableFlipAngleFlag": "N",
        "WindowCenterWidthExplanation": "Algo1",
        "dBdt": 0.0
      },
      "slices": {}
    },
    "modality": "bold",
    "run_id": 3,
    "session_id": "2",
    "subject_id": "047EPKL014007",
    "task_id": "read",
    "time": {
      "samples": {
        "AcquisitionNumber": [
          1,
          2,
          3,
          4,
          5,
          6,
          7,
          8,
          9,
          10,
          11,
          12,
          13,
          14,
          15,
          16,
          17,
          18,
          19,
          20,
          21,
          22,
          23,
          24,
          25,
          26,
          27,
          28,
          29,
          30,
          31,
          32,
          33,
          34,
          35,
          36,
          37,
          38,
          39,
          40,
          41,
          42,
          43,
          44,
          45,
          46,
          47,
          48,
          49,
          50,
          51,
          52,
          53,
          54,
          55,
          56,
          57,
          58,
          59,
          60,
          61,
          62,
          63,
          64,
          65,
          66,
          67,
          68,
          69,
          70,
          71,
          72,
          73,
          74,
          75,
          76,
          77,
          78,
          79,
          80,
          81,
          82,
          83,
          84,
          85,
          86,
          87,
          88,
          89,
          90,
          91,
          92,
          93,
          94,
          95,
          96,
          97,
          98,
          99,
          100,
          101,
          102,
          103,
          104,
          105,
          106,
          107,
          108,
          109,
          110,
          111,
          112,
          113,
          114,
          115,
          116,
          117,
          118,
          119,
          120,
          121,
          122,
          123,
          124,
          125,
          126,
          127
        ],
        "AcquisitionTime": [
          "100545.000000",
          "100547.340000",
          "100549.680000",
          "100552.020000",
          "100554.360000",
          "100556.700000",
          "100559.040000",
          "100601.380000",
          "100603.720000",
          "100606.060000",
          "100608.400000",
          "100610.740000",
          "100613.080000",
          "100615.420000",
          "100617.760000",
          "100620.100000",
          "100622.440000",
          "100624.780000",
          "100627.120000",
          "100629.460000",
          "100631.800000",
          "100634.140000",
          "100636.480000",
          "100638.820000",
          "100641.160000",
          "100643.500000",
          "100645.840000",
          "100648.180000",
          "100650.520000",
          "100652.860000",
          "100655.200000",
          "100657.540000",
          "100659.880000",
          "100702.220000",
          "100704.560000",
          "100706.900000",
          "100709.240000",
          "100711.580000",
          "100713.920000",
          "100716.260000",
          "100718.600000",
          "100720.940000",
          "100723.280000",
          "100725.620000",
          "100727.960000",
          "100730.300000",
          "100732.640000",
          "100734.980000",
          "100737.320000",
          "100739.660000",
          "100742.000000",
          "100744.340000",
          "100746.680000",
          "100749.020000",
          "100751.360000",
          "100753.700000",
          "100756.040000",
          "100758.380000",
          "100800.720000",
          "100803.060000",
          "100805.400000",
          "100807.740000",
          "100810.080000",
          "100812.420000",
          "100814.760000",
          "100817.100000",
          "100819.440000",
          "100821.780000",
          "100824.120000",
          "100826.460000",
          "100828.800000",
          "100831.140000",
          "100833.480000",
          "100835.820000",
          "100838.160000",
          "100840.500000",
          "100842.840000",
          "100845.180000",
          "100847.520000",
          "100849.860000",
          "100852.200000",
          "100854.540000",
          "100856.880000",
          "100859.220000",
          "100901.560000",
          "100903.900000",
          "100906.240000",
          "100908.580000",
          "100910.920000",
          "100913.260000",
          "100915.600000",
          "100917.940000",
          "100920.280000",
          "100922.620000",
          "100924.960000",
          "100927.300000",
          "100929.640000",
          "100931.980000",
          "100934.320000",
          "100936.660000",
          "100939.000000",
          "100941.340000",
          "100943.680000",
          "100946.020000",
          "100948.360000",
          "100950.700000",
          "100953.040000",
          "100955.380000",
          "100957.720000",
          "101000.060000",
          "101002.400000",
          "101004.740000",
          "101007.080000",
          "101009.420000",
          "101011.760000",
          "101014.100000",
          "101016.440000",
          "101018.780000",
          "101021.120000",
          "101023.460000",
          "101025.800000",
          "101028.140000",
          "101030.480000",
          "101032.820000",
          "101035.160000",
          "101037.500000",
          "101039.840000"
        ],
        "ContentTime": [
          "100644.573000",
          "100644.577000",
          "100644.580000",
          "100644.590000",
          "100644.593000",
          "100644.595000",
          "100644.598000",
          "100644.602000",
          "100644.604000",
          "100644.607000",
          "100644.610000",
          "100644.613000",
          "100644.616000",
          "100644.619000",
          "100644.622000",
          "100644.625000",
          "100644.628000",
          "100644.630000",
          "100644.633000",
          "100644.636000",
          "100644.639000",
          "100644.642000",
          "100644.645000",
          "100644.648000",
          "100644.651000",
          "100644.654000",
          "100744.566000",
          "100744.575000",
          "100744.578000",
          "100744.581000",
          "100744.584000",
          "100744.587000",
          "100744.590000",
          "100744.593000",
          "100744.596000",
          "100744.599000",
          "100744.601000",
          "100744.604000",
          "100744.607000",
          "100744.610000",
          "100744.613000",
          "100744.616000",
          "100744.619000",
          "100744.621000",
          "100744.624000",
          "100744.627000",
          "100744.630000",
          "100744.633000",
          "100744.635000",
          "100744.638000",
          "100744.641000",
          "100844.566000",
          "100844.570000",
          "100844.572000",
          "100844.580000",
          "100844.583000",
          "100844.586000",
          "100844.589000",
          "100844.592000",
          "100844.594000",
          "100844.597000",
          "100844.600000",
          "100844.603000",
          "100844.606000",
          "100844.609000",
          "100844.612000",
          "100844.633000",
          "100844.636000",
          "100844.639000",
          "100844.642000",
          "100844.645000",
          "100844.648000",
          "100844.651000",
          "100844.654000",
          "100844.657000",
          "100844.660000",
          "100844.662000",
          "100944.566000",
          "100944.570000",
          "100944.573000",
          "100944.581000",
          "100944.584000",
          "100944.587000",
          "100944.589000",
          "100944.593000",
          "100944.596000",
          "100944.598000",
          "100944.601000",
          "100944.604000",
          "100944.607000",
          "100944.610000",
          "100944.613000",
          "100944.616000",
          "100944.619000",
          "100944.621000",
          "100944.624000",
          "100944.627000",
          "100944.630000",
          "100944.633000",
          "100944.636000",
          "100944.639000",
          "100944.642000",
          "100944.645000",
          "101040.780000",
          "101040.784000",
          "101040.787000",
          "101040.796000",
          "101040.801000",
          "101040.805000",
          "101040.808000",
          "101040.812000",
          "101040.816000",
          "101040.819000",
          "101040.823000",
          "101040.827000",
          "101040.830000",
          "101040.833000",
          "101040.835000",
          "101040.838000",
          "101040.842000",
          "101040.844000",
          "101040.847000",
          "101040.850000",
          "101040.853000",
          "101040.856000",
          "101040.859000",
          "101040.862000"
        ],
        "InstanceCreationTime": [
          "100644.573000",
          "100644.577000",
          "100644.580000",
          "100644.590000",
          "100644.593000",
          "100644.595000",
          "100644.598000",
          "100644.602000",
          "100644.604000",
          "100644.607000",
          "100644.610000",
          "100644.613000",
          "100644.616000",
          "100644.619000",
          "100644.622000",
          "100644.625000",
          "100644.628000",
          "100644.630000",
          "100644.633000",
          "100644.636000",
          "100644.639000",
          "100644.642000",
          "100644.645000",
          "100644.648000",
          "100644.651000",
          "100644.654000",
          "100744.566000",
          "100744.575000",
          "100744.578000",
          "100744.581000",
          "100744.584000",
          "100744.587000",
          "100744.590000",
          "100744.593000",
          "100744.596000",
          "100744.599000",
          "100744.601000",
          "100744.604000",
          "100744.607000",
          "100744.610000",
          "100744.613000",
          "100744.616000",
          "100744.619000",
          "100744.621000",
          "100744.624000",
          "100744.627000",
          "100744.630000",
          "100744.633000",
          "100744.635000",
          "100744.638000",
          "100744.641000",
          "100844.566000",
          "100844.570000",
          "100844.572000",
          "100844.580000",
          "100844.583000",
          "100844.586000",
          "100844.589000",
          "100844.592000",
          "100844.594000",
          "100844.597000",
          "100844.600000",
          "100844.603000",
          "100844.606000",
          "100844.609000",
          "100844.612000",
          "100844.633000",
          "100844.636000",
          "100844.639000",
          "100844.642000",
          "100844.645000",
          "100844.648000",
          "100844.651000",
          "100844.654000",
          "100844.657000",
          "100844.660000",
          "100844.662000",
          "100944.566000",
          "100944.570000",
          "100944.573000",
          "100944.581000",
          "100944.584000",
          "100944.587000",
          "100944.589000",
          "100944.593000",
          "100944.596000",
          "100944.598000",
          "100944.601000",
          "100944.604000",
          "100944.607000",
          "100944.610000",
          "100944.613000",
          "100944.616000",
          "100944.619000",
          "100944.621000",
          "100944.624000",
          "100944.627000",
          "100944.630000",
          "100944.633000",
          "100944.636000",
          "100944.639000",
          "100944.642000",
          "100944.645000",
          "101040.780000",
          "101040.784000",
          "101040.787000",
          "101040.796000",
          "101040.801000",
          "101040.805000",
          "101040.808000",
          "101040.812000",
          "101040.816000",
          "101040.819000",
          "101040.823000",
          "101040.827000",
          "101040.830000",
          "101040.833000",
          "101040.835000",
          "101040.838000",
          "101040.842000",
          "101040.844000",
          "101040.847000",
          "101040.850000",
          "101040.853000",
          "101040.856000",
          "101040.859000",
          "101040.862000"
        ],
        "InstanceNumber": [
          1,
          2,
          3,
          4,
          5,
          6,
          7,
          8,
          9,
          10,
          11,
          12,
          13,
          14,
          15,
          16,
          17,
          18,
          19,
          20,
          21,
          22,
          23,
          24,
          25,
          26,
          27,
          28,
          29,
          30,
          31,
          32,
          33,
          34,
          35,
          36,
          37,
          38,
          39,
          40,
          41,
          42,
          43,
          44,
          45,
          46,
          47,
          48,
          49,
          50,
          51,
          52,
          53,
          54,
          55,
          56,
          57,
          58,
          59,
          60,
          61,
          62,
          63,
          64,
          65,
          66,
          67,
          68,
          69,
          70,
          71,
          72,
          73,
          74,
          75,
          76,
          77,
          78,
          79,
          80,
          81,
          82,
          83,
          84,
          85,
          86,
          87,
          88,
          89,
          90,
          91,
          92,
          93,
          94,
          95,
          96,
          97,
          98,
          99,
          100,
          101,
          102,
          103,
          104,
          105,
          106,
          107,
          108,
          109,
          110,
          111,
          112,
          113,
          114,
          115,
          116,
          117,
          118,
          119,
          120,
          121,
          122,
          123,
          124,
          125,
          126,
          127
        ],
        "LargestImagePixelValue": [
          2253,
          1909,
          2504,
          2575,
          2098,
          1922,
          2467,
          2463,
          2285,
          1978,
          2607,
          2870,
          2452,
          1987,
          2915,
          2556,
          1883,
          2016,
          2062,
          2121,
          2329,
          2583,
          2074,
          2196,
          2648,
          2086,
          2761,
          1926,
          1942,
          2773,
          2937,
          1961,
          2647,
          1942,
          1928,
          1964,
          2428,
          2156,
          2097,
          1950,
          2265,
          1942,
          2854,
          2616,
          1911,
          2441,
          2297,
          1888,
          2161,
          2550,
          1875,
          1964,
          2317,
          1980,
          2441,
          2140,
          1884,
          2685,
          2005,
          1964,
          2466,
          2470,
          1823,
          1926,
          1960,
          2767,
          2575,
          1878,
          2397,
          2583,
          1978,
          2018,
          2789,
          2086,
          2008,
          2316,
          2273,
          1978,
          1945,
          1899,
          2966,
          2170,
          2374,
          2015,
          1890,
          2388,
          2332,
          1899,
          2302,
          2947,
          2201,
          2921,
          2468,
          1996,
          2062,
          2562,
          2064,
          1905,
          1917,
          2009,
          1888,
          2671,
          3041,
          2939,
          2263,
          2569,
          2930,
          2036,
          2184,
          2387,
          2523,
          1904,
          2157,
          2062,
          1949,
          2098,
          2491,
          2168,
          2595,
          2000,
          1919,
          2394,
          2483,
          2844,
          1896,
          1909,
          2097
        ],
        "WindowCenter": [
          848.0,
          847.0,
          847.0,
          846.0,
          847.0,
          846.0,
          846.0,
          845.0,
          846.0,
          847.0,
          848.0,
          846.0,
          845.0,
          848.0,
          845.0,
          843.0,
          841.0,
          844.0,
          845.0,
          846.0,
          847.0,
          845.0,
          847.0,
          850.0,
          847.0,
          845.0,
          844.0,
          844.0,
          844.0,
          845.0,
          843.0,
          845.0,
          844.0,
          847.0,
          845.0,
          847.0,
          845.0,
          846.0,
          846.0,
          846.0,
          846.0,
          848.0,
          846.0,
          847.0,
          845.0,
          848.0,
          847.0,
          843.0,
          844.0,
          846.0,
          846.0,
          849.0,
          847.0,
          845.0,
          844.0,
          848.0,
          846.0,
          847.0,
          848.0,
          846.0,
          847.0,
          849.0,
          844.0,
          849.0,
          846.0,
          848.0,
          849.0,
          845.0,
          848.0,
          847.0,
          847.0,
          849.0,
          847.0,
          848.0,
          846.0,
          850.0,
          848.0,
          847.0,
          848.0,
          848.0,
          846.0,
          847.0,
          846.0,
          848.0,
          847.0,
          849.0,
          849.0,
          848.0,
          849.0,
          850.0,
          848.0,
          849.0,
          848.0,
          849.0,
          848.0,
          848.0,
          849.0,
          850.0,
          848.0,
          849.0,
          851.0,
          853.0,
          851.0,
          850.0,
          848.0,
          849.0,
          848.0,
          849.0,
          849.0,
          849.0,
          847.0,
          849.0,
          850.0,
          850.0,
          849.0,
          849.0,
          851.0,
          848.0,
          849.0,
          848.0,
          847.0,
          851.0,
          848.0,
          848.0,
          846.0,
          847.0,
          849.0
        ],
        "WindowWidth": [
          1813.0,
          1809.0,
          1809.0,
          1808.0,
          1808.0,
          1807.0,
          1807.0,
          1804.0,
          1807.0,
          1809.0,
          1812.0,
          1809.0,
          1803.0,
          1811.0,
          1807.0,
          1796.0,
          1792.0,
          1800.0,
          1802.0,
          1806.0,
          1809.0,
          1809.0,
          1808.0,
          1818.0,
          1811.0,
          1803.0,
          1802.0,
          1801.0,
          1802.0,
          1804.0,
          1802.0,
          1802.0,
          1803.0,
          1807.0,
          1802.0,
          1808.0,
          1803.0,
          1805.0,
          1805.0,
          1806.0,
          1806.0,
          1810.0,
          1810.0,
          1808.0,
          1801.0,
          1813.0,
          1807.0,
          1797.0,
          1800.0,
          1807.0,
          1804.0,
          1816.0,
          1810.0,
          1803.0,
          1802.0,
          1809.0,
          1805.0,
          1813.0,
          1809.0,
          1807.0,
          1809.0,
          1811.0,
          1799.0,
          1812.0,
          1806.0,
          1812.0,
          1812.0,
          1803.0,
          1811.0,
          1811.0,
          1808.0,
          1816.0,
          1813.0,
          1809.0,
          1805.0,
          1816.0,
          1811.0,
          1807.0,
          1809.0,
          1810.0,
          1808.0,
          1807.0,
          1806.0,
          1811.0,
          1806.0,
          1814.0,
          1813.0,
          1810.0,
          1814.0,
          1817.0,
          1810.0,
          1816.0,
          1810.0,
          1816.0,
          1814.0,
          1813.0,
          1809.0,
          1816.0,
          1809.0,
          1814.0,
          1820.0,
          1824.0,
          1822.0,
          1818.0,
          1811.0,
          1816.0,
          1813.0,
          1813.0,
          1815.0,
          1813.0,
          1809.0,
          1813.0,
          1816.0,
          1815.0,
          1813.0,
          1813.0,
          1818.0,
          1811.0,
          1816.0,
          1811.0,
          1808.0,
          1820.0,
          1812.0,
          1813.0,
          1805.0,
          1809.0,
          1813.0
        ]
      },
      "slices": {}
    }
  },
  "dummy_trs": 0,
  "dvars_nstd": 41.921282359444454,
  "dvars_std": 1.3541696869047615,
  "dvars_vstd": 1.0949659145238095,
  "efc": 0.581315286915168,
  "fber": 1629.6163330078125,
  "fd_mean": 0.724596008333012,
  "fd_num": 108,
  "fd_perc": 85.03937007874016,
  "fwhm_avg": 1.6260197686045874,
  "fwhm_x": 1.4862233333333332,
  "fwhm_y": 1.8671300000000002,
  "fwhm_z": 1.5247059724804288,
  "gcor": 0.030601,
  "gsr_x": -0.01375571358948946,
  "gsr_y": 0.05374456197023392,
  "provenance": {
    "md5sum": "f43de5fc0129af4488cbf9576f5ef597",
    "settings": {
      "fd_thres": 0.2,
      "testing": false
    },
    "software": "mriqc",
    "version": "22.0.1",
    "webapi_port": null,
    "webapi_url": "https://mriqc.nimh.nih.gov/api/v1"
  },
  "size_t": 127,
  "size_x": 64,
  "size_y": 64,
  "size_z": 34,
  "snr": 6.630686305380592,
  "spacing_tr": 2.3399999141693115,
  "spacing_x": 3.0,
  "spacing_y": 3.0,
  "spacing_z": 3.3000001907348633,
  "summary_bg_k": 59.12959003579908,
  "summary_bg_mad": 9.946274385610959,
  "summary_bg_mean": 36.0335807800293,
  "summary_bg_median": 24.0157470703125,
  "summary_bg_n": 69850.0,
  "summary_bg_p05": 12.921259880065918,
  "summary_bg_p95": 93.66653289794928,
  "summary_bg_stdv": 47.81977462768555,
  "summary_fg_k": 2.14928239680793,
  "summary_fg_mad": 146.38068148316086,
  "summary_fg_mean": 994.798583984375,
  "summary_fg_median": 991.0433349609375,
  "summary_fg_n": 36354.0,
  "summary_fg_p05": 778.8000122070313,
  "summary_fg_p95": 1221.0704284667968,
  "summary_fg_stdv": 149.4611053466797,
  "tsnr": 47.103439091239125
}