{
  "aor": 0.004589055118110237,
  "aqi": 0.016714463700787403,
  "bids_meta": {
    "AcquisitionMatrixPE": 64,
    "AcquisitionNumber": 1,
    "AcquisitionTime": "14:13:39.435000",
    "BandwidthPerPixelPhaseEncode": 24.038,
    "BaseResolution": 64,
    "BodyPartExamined": "HEAD",
    "ConsistencyInfo": "N4_VD13A_LATEST_20120616",
    "ConversionSoftware": "dcm2niix",
    "ConversionSoftwareVersion": "v1.0.20181125  GCC6.3.0",
    "DerivedVendorReportedEchoSpacing": 0.000650012,
    "DeviceSerialNumber": "45250",
    "DwellTime": 4.6e-06,
    "EchoTime": 0.033,
    "EchoTrainLength": 64,
    "EffectiveEchoSpacing": 0.000650012,
    "FlipAngle": 90,
    "ImageOrientationPatientDICOM": [
      0.999666,
      -0.0211802,
      -0.0148182,
      0.015704,
      0.952962,
      -0.302682
    ],
    "ImageType": [
      "ORIGINAL",
      "PRIMARY",
      "M",
      "ND",
      "NORM",
      "MOSAIC"
    ],
    "ImagingFrequency": 123.22,
    "InPlanePhaseEncodingDirectionDICOM": "COL",
    "InstitutionAddress": "Kopernikusstr._26_Graz_Graz_AT_8010",
    "InstitutionName": "KFU",
    "InstitutionalDepartmentName": "Department",
    "MRAcquisitionType": "2D",
    "MagneticFieldStrength": 3,
    "Manufacturer": "Siemens",
    "ManufacturersModelName": "Skyra",
    "Modality": "MR",
    "PartialFourier": 1,
    "PatientPosition": "HFS",
    "PercentPhaseFOV": 100,
    "PhaseEncodingDirection": "j-",
    "PhaseEncodingSteps": 64,
    "PhaseResolution": 1,
    "PixelBandwidth": 1700,
    "ProcedureStepDescription": "KFU_Entw-Psy",
    "ProtocolName": "fMRI_3",
    "PulseSequenceDetails": "%SiemensSeq%_ep2d_pace",
    "ReceiveCoilActiveElements": "HE1-4",
    "ReceiveCoilName": "HeadNeck_20",
    "ReconMatrixPE": 64,
    "RepetitionTime": 2.34,
    "SAR": 0.161027,
    "ScanOptions": "FS",
    "ScanningSequence": "EP",
    "SequenceName": "_epfid2d1_64",
    "SequenceVariant": "SK",
    "SeriesDescription": "fMRI_3",
    "SeriesNumber": 8,
    "ShimSetting": [
      -1681,
      -3624,
      -4379,
      331,
      659,
      9,
      -100,
      -369
    ],
    "SliceThickness": 3,
    "SliceTiming": [
      2.2525,
      2.185,
      2.115,
      2.0475,
      1.98,
      1.91,
      1.8425,
      1.775,
      1.705,
      1.6375,
      1.57,
      1.5025,
      1.4325,
      1.365,
      1.2975,
      1.2275,
      1.16,
      1.0925,
      1.025,
      0.955,
      0.8875,
      0.82,
      0.75,
      0.6825,
      0.615,
      0.5475,
      0.4775,
      0.41,
      0.3425,
      0.2725,
      0.205,
      0.1375,
      0.0675,
      0
    ],
    "SoftwareVersions": "syngo_MR_D13",
    "SpacingBetweenSlices": 3.3,
    "StationName": "FBMTMR1",
    "TaskName": "read",
    "TotalReadoutTime": 0.0409508,
    "TxRefAmp": 338.875,
    "dataset": "ds003126",
    "dcmmeta_affine": [
      [
        -2.998997449874878,
        0.047111932188272476,
        -0.06775593012571335,
        92.71131896972656
      ],
      [
        0.06354066729545593,
        2.858886241912842,
        -0.9977502822875977,
        -106.6783218383789
      ],
      [
        -0.04445471242070198,
        0.9080472588539124,
        3.1448216438293457,
        -49.50404739379883
      ],
      [
        0.0,
        0.0,
        0.0,
        1.0
      ]
    ],
    "dcmmeta_reorient_transform": [
      [
        0.0,
        -1.0,
        0.0,
        63.0
      ],
      [
        1.0,
        0.0,
        0.0,
        0.0
      ],
      [
        0.0,
        0.0,
        1.0,
        0.0
      ],
      [
        0.0,
        0.0,
        0.0,
        1.0
      ]
    ],
    "dcmmeta_shape": [
      64,
      64,
      34,
      127
    ],
    "dcmmeta_slice_dim": 2,
    "dcmmeta_version": 0.6,
    "global": {
      "const": {
        "AcquisitionMatrix": [
          64,
          0,
          0,
          64
        ],
        "AngioFlag": "N",
        "BitsAllocated": 16,
        "BitsStored": 12,
        "BodyPartExamined": "HEAD",
        "Columns": 384,
        "EchoNumbers": 1,
        "EchoTime": 33.0,
        "EchoTrainLength": 64,
        "FlipAngle": 90.0,
        "HighBit": 11,
        "ImageOrientationPatient": [
          0.99966585317452,
          -0.0211802230727,
          -0.014818236989,
          0.01570397711318,
          0.95296208539375,
          -0.3026824225237
        ],
        "ImagePositionPatient": [
          -583.05688693936,
          -520.68681000285,
          160.10324784502
        ],
        "ImageType": [
          "ORIGINAL",
          "PRIMARY",
          "M",
          "ND",
          "NORM",
          "MOSAIC"
        ],
        "ImagedNucleus": "1H",
        "ImagingFrequency": 123.22027,
        "InPlanePhaseEncodingDirection": "COL",
        "MRAcquisitionType": "2D",
        "MagneticFieldStrength": 3.0,
        "Manufacturer": "SIEMENS",
        "ManufacturerModelName": "Skyra",
        "Modality": "MR",
        "NumberOfAverages": 1.0,
        "NumberOfPhaseEncodingSteps": 64,
        "PercentPhaseFieldOfView": 100.0,
        "PercentSampling": 100.0,
        "PerformedProcedureStepStartTime": "135936.731000",
        "PhotometricInterpretation": "MONOCHROME2",
        "PixelBandwidth": 1700.0,
        "PixelRepresentation": 0,
        "PixelSpacing": [
          3.0,
          3.0
        ],
        "ProtocolName": "fMRI_3",
        "RepetitionTime": 2340.0,
        "Rows": 384,
        "SAR": 0.16102690656372,
        "SamplesPerPixel": 1,
        "ScanOptions": "FS",
        "ScanningSequence": "EP",
        "SequenceName": "*epfid2d1_64",
        "SequenceVariant": "SK",
        "SeriesDescription": "fMRI_3",
        "SeriesNumber": 8,
        "SeriesTime": "141436.925000",
        "SliceLocation": -16.825701960028,
        "SliceThickness": 3.0,
        "SmallestImagePixelValue": 0,
        "SoftwareVersions": "syngo MR D13",
        "SpacingBetweenSlices": 3.2999999819437,
        "SpecificCharacterSet": "ISO_IR 100",
        "StudyID": "2",
        "StudyTime": "135936.681000",
        "TransmitCoilName": "Body",
        "VariableFlipAngleFlag": "N",
        "WindowCenterWidthExplanation": "Algo1",
        "dBdt": 0.0
      },
      "slices": {}
    },
    "modality": "bold",
    "run_id": 3,
    "session_id": "2",
    "subject_id": "047EPKL014054",
    "task_id": "read",
    "time": {
      "samples": {
        "AcquisitionNumber": [
          1,
          2,
          3,
          4,
          5,
          6,
          7,
          8,
          9,
          10,
          11,
          12,
          13,
          14,
          15,
          16,
          17,
          18,
          19,
          20,
          21,
          22,
          23,
          24,
          25,
          26,
          27,
          28,
          29,
          30,
          31,
          32,
          33,
          34,
          35,
          36,
          37,
          38,
          39,
          40,
          41,
          42,
          43,
          44,
          45,
          46,
          47,
          48,
          49,
          50,
          51,
          52,
          53,
          54,
          55,
          56,
          57,
          58,
          59,
          60,
          61,
          62,
          63,
          64,
          65,
          66,
          67,
          68,
          69,
          70,
          71,
          72,
          73,
          74,
          75,
          76,
          77,
          78,
          79,
          80,
          81,
          82,
          83,
          84,
          85,
          86,
          87,
          88,
          89,
          90,
          91,
          92,
          93,
          94,
          95,
          96,
          97,
          98,
          99,
          100,
          101,
          102,
          103,
          104,
          105,
          106,
          107,
          108,
          109,
          110,
          111,
          112,
          113,
          114,
          115,
          116,
          117,
          118,
          119,
          120,
          121,
          122,
          123,
          124,
          125,
          126,
          127
        ],
        "AcquisitionTime": [
          "141339.435000",
          "141341.775000",
          "141344.115000",
          "141346.455000",
          "141348.795000",
          "141351.135000",
          "141353.475000",
          "141355.815000",
          "141358.155000",
          "141400.495000",
          "141402.835000",
          "141405.175000",
          "141407.515000",
          "141409.855000",
          "141412.195000",
          "141414.535000",
          "141416.875000",
          "141419.215000",
          "141421.555000",
          "141423.895000",
          "141426.235000",
          "141428.575000",
          "141430.915000",
          "141433.255000",
          "141435.595000",
          "141437.935000",
          "141440.275000",
          "141442.615000",
          "141444.955000",
          "141447.295000",
          "141449.635000",
          "141451.975000",
          "141454.315000",
          "141456.655000",
          "141458.995000",
          "141501.335000",
          "141503.675000",
          "141506.015000",
          "141508.355000",
          "141510.695000",
          "141513.035000",
          "141515.375000",
          "141517.715000",
          "141520.055000",
          "141522.395000",
          "141524.735000",
          "141527.075000",
          "141529.415000",
          "141531.755000",
          "141534.095000",
          "141536.435000",
          "141538.775000",
          "141541.115000",
          "141543.455000",
          "141545.795000",
          "141548.135000",
          "141550.475000",
          "141552.815000",
          "141555.155000",
          "141557.495000",
          "141559.835000",
          "141602.175000",
          "141604.515000",
          "141606.855000",
          "141609.195000",
          "141611.535000",
          "141613.875000",
          "141616.215000",
          "141618.555000",
          "141620.895000",
          "141623.235000",
          "141625.575000",
          "141627.915000",
          "141630.255000",
          "141632.595000",
          "141634.935000",
          "141637.275000",
          "141639.615000",
          "141641.955000",
          "141644.295000",
          "141646.635000",
          "141648.975000",
          "141651.315000",
          "141653.655000",
          "141655.995000",
          "141658.335000",
          "141700.675000",
          "141703.015000",
          "141705.355000",
          "141707.695000",
          "141710.035000",
          "141712.375000",
          "141714.715000",
          "141717.055000",
          "141719.395000",
          "141721.735000",
          "141724.075000",
          "141726.415000",
          "141728.755000",
          "141731.095000",
          "141733.435000",
          "141735.775000",
          "141738.115000",
          "141740.455000",
          "141742.795000",
          "141745.135000",
          "141747.475000",
          "141749.815000",
          "141752.155000",
          "141754.495000",
          "141756.835000",
          "141759.175000",
          "141801.515000",
          "141803.855000",
          "141806.195000",
          "141808.535000",
          "141810.875000",
          "141813.215000",
          "141815.555000",
          "141817.895000",
          "141820.235000",
          "141822.575000",
          "141824.915000",
          "141827.255000",
          "141829.595000",
          "141831.935000",
          "141834.275000"
        ],
        "ContentTime": [
          "141436.930000",
          "141436.935000",
          "141436.937000",
          "141436.943000",
          "141436.945000",
          "141436.948000",
          "141436.951000",
          "141436.954000",
          "141436.957000",
          "141436.960000",
          "141436.962000",
          "141436.965000",
          "141436.968000",
          "141436.971000",
          "141436.974000",
          "141436.976000",
          "141436.979000",
          "141436.982000",
          "141436.985000",
          "141436.988000",
          "141436.991000",
          "141436.994000",
          "141436.996000",
          "141437.000000",
          "141437.003000",
          "141536.924000",
          "141536.934000",
          "141536.937000",
          "141536.940000",
          "141536.942000",
          "141536.945000",
          "141536.948000",
          "141536.951000",
          "141536.954000",
          "141536.957000",
          "141536.960000",
          "141536.962000",
          "141536.965000",
          "141536.968000",
          "141536.971000",
          "141536.974000",
          "141536.977000",
          "141536.980000",
          "141536.982000",
          "141536.985000",
          "141536.988000",
          "141536.991000",
          "141536.994000",
          "141536.996000",
          "141536.999000",
          "141636.924000",
          "141636.927000",
          "141636.929000",
          "141636.939000",
          "141636.941000",
          "141636.944000",
          "141636.947000",
          "141636.950000",
          "141636.952000",
          "141636.955000",
          "141636.957000",
          "141636.960000",
          "141636.963000",
          "141636.966000",
          "141636.969000",
          "141636.972000",
          "141636.974000",
          "141636.977000",
          "141636.980000",
          "141636.983000",
          "141636.985000",
          "141636.988000",
          "141636.991000",
          "141636.994000",
          "141636.997000",
          "141637.001000",
          "141736.923000",
          "141736.926000",
          "141736.929000",
          "141736.932000",
          "141736.935000",
          "141736.938000",
          "141736.940000",
          "141736.944000",
          "141736.947000",
          "141736.949000",
          "141736.952000",
          "141736.955000",
          "141736.958000",
          "141736.960000",
          "141736.963000",
          "141736.966000",
          "141736.969000",
          "141736.971000",
          "141736.980000",
          "141736.983000",
          "141736.986000",
          "141736.989000",
          "141736.992000",
          "141736.995000",
          "141736.997000",
          "141737.000000",
          "141835.976000",
          "141835.980000",
          "141835.982000",
          "141835.995000",
          "141835.998000",
          "141836.002000",
          "141836.005000",
          "141836.009000",
          "141836.012000",
          "141836.015000",
          "141836.017000",
          "141836.031000",
          "141836.034000",
          "141836.037000",
          "141836.040000",
          "141836.043000",
          "141836.046000",
          "141836.049000",
          "141836.052000",
          "141836.055000",
          "141836.059000",
          "141836.062000",
          "141836.065000",
          "141836.068000",
          "141836.070000"
        ],
        "InstanceCreationTime": [
          "141436.930000",
          "141436.935000",
          "141436.937000",
          "141436.943000",
          "141436.945000",
          "141436.948000",
          "141436.951000",
          "141436.954000",
          "141436.957000",
          "141436.960000",
          "141436.962000",
          "141436.965000",
          "141436.968000",
          "141436.971000",
          "141436.974000",
          "141436.976000",
          "141436.979000",
          "141436.982000",
          "141436.985000",
          "141436.988000",
          "141436.991000",
          "141436.994000",
          "141436.996000",
          "141437.000000",
          "141437.003000",
          "141536.924000",
          "141536.934000",
          "141536.937000",
          "141536.940000",
          "141536.942000",
          "141536.945000",
          "141536.948000",
          "141536.951000",
          "141536.954000",
          "141536.957000",
          "141536.960000",
          "141536.962000",
          "141536.965000",
          "141536.968000",
          "141536.971000",
          "141536.974000",
          "141536.977000",
          "141536.980000",
          "141536.982000",
          "141536.985000",
          "141536.988000",
          "141536.991000",
          "141536.994000",
          "141536.996000",
          "141536.999000",
          "141636.924000",
          "141636.927000",
          "141636.929000",
          "141636.939000",
          "141636.941000",
          "141636.944000",
          "141636.947000",
          "141636.950000",
          "141636.952000",
          "141636.955000",
          "141636.957000",
          "141636.960000",
          "141636.963000",
          "141636.966000",
          "141636.969000",
          "141636.972000",
          "141636.974000",
          "141636.977000",
          "141636.980000",
          "141636.983000",
          "141636.985000",
          "141636.988000",
          "141636.991000",
          "141636.994000",
          "141636.997000",
          "141637.001000",
          "141736.923000",
          "141736.926000",
          "141736.929000",
          "141736.932000",
          "141736.935000",
          "141736.938000",
          "141736.940000",
          "141736.944000",
          "141736.947000",
          "141736.949000",
          "141736.952000",
          "141736.955000",
          "141736.958000",
          "141736.960000",
          "141736.963000",
          "141736.966000",
          "141736.969000",
          "141736.971000",
          "141736.980000",
          "141736.983000",
          "141736.986000",
          "141736.989000",
          "141736.992000",
          "141736.995000",
          "141736.997000",
          "141737.000000",
          "141835.976000",
          "141835.980000",
          "141835.982000",
          "141835.995000",
          "141835.998000",
          "141836.002000",
          "141836.005000",
          "141836.009000",
          "141836.012000",
          "141836.015000",
          "141836.017000",
          "141836.031000",
          "141836.034000",
          "141836.037000",
          "141836.040000",
          "141836.043000",
          "141836.046000",
          "141836.049000",
          "141836.052000",
          "141836.055000",
          "141836.059000",
          "141836.062000",
          "141836.065000",
          "141836.068000",
          "141836.070000"
        ],
        "InstanceNumber": [
          1,
          2,
          3,
          4,
          5,
          6,
          7,
          8,
          9,
          10,
          11,
          12,
          13,
          14,
          15,
          16,
          17,
          18,
          19,
          20,
          21,
          22,
          23,
          24,
          25,
          26,
          27,
          28,
          29,
          30,
          31,
          32,
          33,
          34,
          35,
          36,
          37,
          38,
          39,
          40,
          41,
          42,
          43,
          44,
          45,
          46,
          47,
          48,
          49,
          50,
          51,
          52,
          53,
          54,
          55,
          56,
          57,
          58,
          59,
          60,
          61,
          62,
          63,
          64,
          65,
          66,
          67,
          68,
          69,
          70,
          71,
          72,
          73,
          74,
          75,
          76,
          77,
          78,
          79,
          80,
          81,
          82,
          83,
          84,
          85,
          86,
          87,
          88,
          89,
          90,
          91,
          92,
          93,
          94,
          95,
          96,
          97,
          98,
          99,
          100,
          101,
          102,
          103,
          104,
          105,
          106,
          107,
          108,
          109,
          110,
          111,
          112,
          113,
          114,
          115,
          116,
          117,
          118,
          119,
          120,
          121,
          122,
          123,
          124,
          125,
          126,
          127
        ],
        "LargestImagePixelValue": [
          1962,
          2039,
          1994,
          2031,
          1988,
          1939,
          2016,
          2872,
          1878,
          2036,
          2022,
          1919,
          1918,
          2009,
          1901,
          1860,
          1802,
          1982,
          1897,
          2003,
          1902,
          1979,
          2266,
          1933,
          1867,
          2352,
          2669,
          1964,
          1921,
          2040,
          1995,
          1974,
          2345,
          2096,
          2601,
          1970,
          2431,
          1943,
          1921,
          1882,
          1763,
          1740,
          1996,
          1763,
          1768,
          1850,
          2052,
          2414,
          2440,
          2062,
          2084,
          1890,
          2111,
          1810,
          1980,
          1880,
          2038,
          1947,
          1945,
          1885,
          1813,
          2044,
          2231,
          1938,
          1904,
          1748,
          2374,
          2573,
          2336,
          2245,
          1875,
          2199,
          1883,
          2142,
          1849,
          2298,
          1941,
          1847,
          1913,
          2146,
          2198,
          1921,
          1839,
          1796,
          2003,
          1940,
          2019,
          1956,
          1803,
          1992,
          2182,
          2223,
          2290,
          2664,
          1868,
          1827,
          1954,
          1917,
          1771,
          1747,
          1863,
          1939,
          1867,
          2437,
          2781,
          1897,
          1920,
          1854,
          1944,
          2009,
          2352,
          1820,
          1799,
          2397,
          1816,
          1890,
          2186,
          2564,
          1842,
          1990,
          1955,
          1961,
          1782,
          1767,
          1849,
          2048,
          1871
        ],
        "WindowCenter": [
          840.0,
          839.0,
          837.0,
          836.0,
          839.0,
          839.0,
          838.0,
          837.0,
          836.0,
          835.0,
          835.0,
          838.0,
          837.0,
          838.0,
          836.0,
          838.0,
          837.0,
          840.0,
          836.0,
          837.0,
          837.0,
          838.0,
          838.0,
          836.0,
          839.0,
          840.0,
          836.0,
          836.0,
          833.0,
          835.0,
          837.0,
          837.0,
          836.0,
          839.0,
          836.0,
          835.0,
          835.0,
          834.0,
          836.0,
          836.0,
          836.0,
          837.0,
          838.0,
          838.0,
          837.0,
          840.0,
          840.0,
          838.0,
          838.0,
          837.0,
          837.0,
          837.0,
          837.0,
          837.0,
          838.0,
          838.0,
          837.0,
          839.0,
          837.0,
          838.0,
          839.0,
          840.0,
          836.0,
          840.0,
          840.0,
          838.0,
          838.0,
          836.0,
          835.0,
          835.0,
          834.0,
          835.0,
          835.0,
          837.0,
          834.0,
          835.0,
          834.0,
          837.0,
          838.0,
          837.0,
          834.0,
          832.0,
          834.0,
          835.0,
          834.0,
          834.0,
          832.0,
          835.0,
          837.0,
          839.0,
          837.0,
          839.0,
          836.0,
          834.0,
          834.0,
          837.0,
          835.0,
          836.0,
          838.0,
          837.0,
          839.0,
          839.0,
          837.0,
          839.0,
          835.0,
          836.0,
          835.0,
          838.0,
          838.0,
          838.0,
          836.0,
          837.0,
          837.0,
          838.0,
          834.0,
          836.0,
          838.0,
          835.0,
          835.0,
          836.0,
          835.0,
          839.0,
          837.0,
          837.0,
          839.0,
          839.0,
          837.0
        ],
        "WindowWidth": [
          1780.0,
          1777.0,
          1773.0,
          1771.0,
          1777.0,
          1777.0,
          1776.0,
          1774.0,
          1768.0,
          1767.0,
          1768.0,
          1774.0,
          1772.0,
          1774.0,
          1771.0,
          1772.0,
          1772.0,
          1781.0,
          1773.0,
          1772.0,
          1772.0,
          1775.0,
          1775.0,
          1769.0,
          1776.0,
          1780.0,
          1770.0,
          1769.0,
          1763.0,
          1768.0,
          1772.0,
          1771.0,
          1770.0,
          1777.0,
          1769.0,
          1767.0,
          1768.0,
          1765.0,
          1770.0,
          1769.0,
          1769.0,
          1773.0,
          1774.0,
          1774.0,
          1773.0,
          1779.0,
          1780.0,
          1775.0,
          1775.0,
          1773.0,
          1773.0,
          1772.0,
          1774.0,
          1771.0,
          1773.0,
          1774.0,
          1771.0,
          1778.0,
          1772.0,
          1774.0,
          1777.0,
          1779.0,
          1770.0,
          1783.0,
          1779.0,
          1774.0,
          1776.0,
          1771.0,
          1769.0,
          1767.0,
          1766.0,
          1766.0,
          1765.0,
          1771.0,
          1764.0,
          1769.0,
          1764.0,
          1772.0,
          1775.0,
          1772.0,
          1765.0,
          1760.0,
          1765.0,
          1768.0,
          1765.0,
          1766.0,
          1760.0,
          1765.0,
          1771.0,
          1778.0,
          1770.0,
          1782.0,
          1772.0,
          1765.0,
          1765.0,
          1774.0,
          1768.0,
          1772.0,
          1776.0,
          1774.0,
          1778.0,
          1777.0,
          1774.0,
          1777.0,
          1768.0,
          1771.0,
          1768.0,
          1774.0,
          1775.0,
          1775.0,
          1771.0,
          1773.0,
          1773.0,
          1775.0,
          1765.0,
          1773.0,
          1776.0,
          1769.0,
          1766.0,
          1770.0,
          1768.0,
          1780.0,
          1772.0,
          1774.0,
          1779.0,
          1778.0,
          1775.0
        ]
      },
      "slices": {}
    }
  },
  "dummy_trs": 0,
  "dvars_nstd": 38.058701908968246,
  "dvars_std": 1.3538165549206347,
  "dvars_vstd": 1.0395538362698418,
  "efc": 0.5881285746336261,
  "fber": 1741.8438720703125,
  "fd_mean": 0.49456819824856607,
  "fd_num": 106,
  "fd_perc": 83.46456692913385,
  "fwhm_avg": 1.617916370962842,
  "fwhm_x": 1.5318500000000002,
  "fwhm_y": 1.8007900000000001,
  "fwhm_z": 1.5211091128885257,
  "gcor": 0.029532,
  "gsr_x": -0.002457382855936885,
  "gsr_y": 0.04850653186440468,
  "provenance": {
    "md5sum": "504f21b74f281be52745ff2da0857094",
    "settings": {
      "fd_thres": 0.2,
      "testing": false
    },
    "software": "mriqc",
    "version": "22.0.1",
    "webapi_port": null,
    "webapi_url": "https://mriqc.nimh.nih.gov/api/v1"
  },
  "size_t": 127,
  "size_x": 64,
  "size_y": 64,
  "size_z": 34,
  "snr": 7.257617481059971,
  "spacing_tr": 2.3399999141693115,
  "spacing_x": 3.0,
  "spacing_y": 3.0,
  "spacing_z": 3.299999952316284,
  "summary_bg_k": 27.23134204617314,
  "summary_bg_mad": 10.179757766449608,
  "summary_bg_mean": 40.43948745727539,
  "summary_bg_median": 22.77165412902832,
  "summary_bg_n": 70299.0,
  "summary_bg_p05": 12.897637367248535,
  "summary_bg_p95": 136.80550842285135,
  "summary_bg_stdv": 56.20060348510742,
  "summary_fg_k": 3.125667371369725,
  "summary_fg_mad": 128.3035037496143,
  "summary_fg_mean": 973.7679443359375,
  "summary_fg_median": 974.350341796875,
  "summary_fg_n": 36596.0,
  "summary_fg_p05": 778.1240081787109,
  "summary_fg_p95": 1174.5137939453125,
  "summary_fg_stdv": 134.25025939941406,
  "tsnr": 55.48126801010221
}