{
  "aor": 0.005147539682539683,
  "aqi": 0.01831356261904762,
  "bids_meta": {
    "AcquisitionMatrixPE": 64,
    "AcquisitionNumber": 1,
    "AcquisitionTime": "14:07:51.060000",
    "BandwidthPerPixelPhaseEncode": 24.038,
    "BaseResolution": 64,
    "BodyPartExamined": "HEAD",
    "ConsistencyInfo": "N4_VD13A_LATEST_20120616",
    "ConversionSoftware": "dcm2niix",
    "ConversionSoftwareVersion": "v1.0.20181125  GCC6.3.0",
    "DerivedVendorReportedEchoSpacing": 0.000650012,
    "DeviceSerialNumber": "45250",
    "DwellTime": 4.6e-06,
    "EchoTime": 0.033,
    "EchoTrainLength": 64,
    "EffectiveEchoSpacing": 0.000650012,
    "FlipAngle": 90,
    "ImageOrientationPatientDICOM": [
      0.999666,
      -0.0211802,
      -0.0148182,
      0.015704,
      0.952962,
      -0.302682
    ],
    "ImageType": [
      "ORIGINAL",
      "PRIMARY",
      "M",
      "ND",
      "NORM",
      "MOSAIC"
    ],
    "ImagingFrequency": 123.22,
    "InPlanePhaseEncodingDirectionDICOM": "COL",
    "InstitutionAddress": "Kopernikusstr._26_Graz_Graz_AT_8010",
    "InstitutionName": "KFU",
    "InstitutionalDepartmentName": "Department",
    "MRAcquisitionType": "2D",
    "MagneticFieldStrength": 3,
    "Manufacturer": "Siemens",
    "ManufacturersModelName": "Skyra",
    "Modality": "MR",
    "PartialFourier": 1,
    "PatientPosition": "HFS",
    "PercentPhaseFOV": 100,
    "PhaseEncodingDirection": "j-",
    "PhaseEncodingSteps": 64,
    "PhaseResolution": 1,
    "PixelBandwidth": 1700,
    "ProcedureStepDescription": "KFU_Entw-Psy",
    "ProtocolName": "fMRI_2",
    "PulseSequenceDetails": "%SiemensSeq%_ep2d_pace",
    "ReceiveCoilActiveElements": "HE1-4",
    "ReceiveCoilName": "HeadNeck_20",
    "ReconMatrixPE": 64,
    "RepetitionTime": 2.34,
    "SAR": 0.161027,
    "ScanOptions": "FS",
    "ScanningSequence": "EP",
    "SequenceName": "_epfid2d1_64",
    "SequenceVariant": "SK",
    "SeriesDescription": "fMRI_2",
    "SeriesNumber": 5,
    "ShimSetting": [
      -1681,
      -3624,
      -4379,
      331,
      659,
      9,
      -100,
      -369
    ],
    "SliceThickness": 3,
    "SliceTiming": [
      2.2525,
      2.185,
      2.115,
      2.0475,
      1.98,
      1.91,
      1.8425,
      1.775,
      1.7075,
      1.6375,
      1.57,
      1.5025,
      1.4325,
      1.365,
      1.2975,
      1.23,
      1.16,
      1.0925,
      1.025,
      0.955,
      0.8875,
      0.82,
      0.75,
      0.6825,
      0.615,
      0.5475,
      0.4775,
      0.41,
      0.3425,
      0.2725,
      0.205,
      0.1375,
      0.07,
      0
    ],
    "SoftwareVersions": "syngo_MR_D13",
    "SpacingBetweenSlices": 3.3,
    "StationName": "FBMTMR1",
    "TaskName": "read",
    "TotalReadoutTime": 0.0409508,
    "TxRefAmp": 338.875,
    "dataset": "ds003126",
    "dcmmeta_affine": [
      [
        -2.998997449874878,
        0.047111932188272476,
        -0.06775593012571335,
        92.71131896972656
      ],
      [
        0.06354066729545593,
        2.858886241912842,
        -0.9977502822875977,
        -106.6783218383789
      ],
      [
        -0.04445471242070198,
        0.9080472588539124,
        3.1448216438293457,
        -49.50404739379883
      ],
      [
        0.0,
        0.0,
        0.0,
        1.0
      ]
    ],
    "dcmmeta_reorient_transform": [
      [
        0.0,
        -1.0,
        0.0,
        63.0
      ],
      [
        1.0,
        0.0,
        0.0,
        0.0
      ],
      [
        0.0,
        0.0,
        1.0,
        0.0
      ],
      [
        0.0,
        0.0,
        0.0,
        1.0
      ]
    ],
    "dcmmeta_shape": [
      64,
      64,
      34,
      126
    ],
    "dcmmeta_slice_dim": 2,
    "dcmmeta_version": 0.6,
    "global": {
      "const": {
        "AcquisitionMatrix": [
          64,
          0,
          0,
          64
        ],
        "AngioFlag": "N",
        "BitsAllocated": 16,
        "BitsStored": 12,
        "BodyPartExamined": "HEAD",
        "Columns": 384,
        "EchoNumbers": 1,
        "EchoTime": 33.0,
        "EchoTrainLength": 64,
        "FlipAngle": 90.0,
        "HighBit": 11,
        "ImageOrientationPatient": [
          0.99966585317452,
          -0.0211802230727,
          -0.014818236989,
          0.01570397711318,
          0.95296208539375,
          -0.3026824225237
        ],
        "ImagePositionPatient": [
          -583.05688693936,
          -520.68681000285,
          160.10324784502
        ],
        "ImageType": [
          "ORIGINAL",
          "PRIMARY",
          "M",
          "ND",
          "NORM",
          "MOSAIC"
        ],
        "ImagedNucleus": "1H",
        "ImagingFrequency": 123.220264,
        "InPlanePhaseEncodingDirection": "COL",
        "MRAcquisitionType": "2D",
        "MagneticFieldStrength": 3.0,
        "Manufacturer": "SIEMENS",
        "ManufacturerModelName": "Skyra",
        "Modality": "MR",
        "NumberOfAverages": 1.0,
        "NumberOfPhaseEncodingSteps": 64,
        "PercentPhaseFieldOfView": 100.0,
        "PercentSampling": 100.0,
        "PerformedProcedureStepStartTime": "135936.731000",
        "PhotometricInterpretation": "MONOCHROME2",
        "PixelBandwidth": 1700.0,
        "PixelRepresentation": 0,
        "PixelSpacing": [
          3.0,
          3.0
        ],
        "ProtocolName": "fMRI_2",
        "RepetitionTime": 2340.0,
        "Rows": 384,
        "SAR": 0.16102690656372,
        "SamplesPerPixel": 1,
        "ScanOptions": "FS",
        "ScanningSequence": "EP",
        "SequenceName": "*epfid2d1_64",
        "SequenceVariant": "SK",
        "SeriesDescription": "fMRI_2",
        "SeriesNumber": 5,
        "SeriesTime": "140850.211000",
        "SliceLocation": -16.825701960028,
        "SliceThickness": 3.0,
        "SmallestImagePixelValue": 0,
        "SoftwareVersions": "syngo MR D13",
        "SpacingBetweenSlices": 3.2999999819437,
        "SpecificCharacterSet": "ISO_IR 100",
        "StudyID": "2",
        "StudyTime": "135936.681000",
        "TransmitCoilName": "Body",
        "VariableFlipAngleFlag": "N",
        "WindowCenterWidthExplanation": "Algo1",
        "dBdt": 0.0
      },
      "slices": {}
    },
    "modality": "bold",
    "run_id": 2,
    "session_id": "2",
    "subject_id": "047EPKL014054",
    "task_id": "read",
    "time": {
      "samples": {
        "AcquisitionNumber": [
          1,
          2,
          3,
          4,
          5,
          6,
          7,
          8,
          9,
          10,
          11,
          12,
          13,
          14,
          15,
          16,
          17,
          18,
          19,
          20,
          21,
          22,
          23,
          24,
          25,
          26,
          27,
          28,
          29,
          30,
          31,
          32,
          33,
          34,
          35,
          36,
          37,
          38,
          39,
          40,
          41,
          42,
          43,
          44,
          45,
          46,
          47,
          48,
          49,
          50,
          51,
          52,
          53,
          54,
          55,
          56,
          57,
          58,
          59,
          60,
          61,
          62,
          63,
          64,
          65,
          66,
          67,
          68,
          69,
          70,
          71,
          72,
          73,
          74,
          75,
          76,
          77,
          78,
          79,
          80,
          81,
          82,
          83,
          84,
          85,
          86,
          87,
          88,
          89,
          90,
          91,
          92,
          93,
          94,
          95,
          96,
          97,
          98,
          99,
          100,
          101,
          102,
          103,
          104,
          105,
          106,
          107,
          108,
          109,
          110,
          111,
          112,
          113,
          114,
          115,
          116,
          117,
          118,
          119,
          120,
          121,
          122,
          123,
          124,
          125,
          126
        ],
        "AcquisitionTime": [
          "140751.060000",
          "140753.400000",
          "140755.740000",
          "140758.080000",
          "140800.420000",
          "140802.760000",
          "140805.100000",
          "140807.440000",
          "140809.780000",
          "140812.120000",
          "140814.460000",
          "140816.800000",
          "140819.140000",
          "140821.480000",
          "140823.820000",
          "140826.160000",
          "140828.500000",
          "140830.840000",
          "140833.180000",
          "140835.520000",
          "140837.860000",
          "140840.200000",
          "140842.540000",
          "140844.880000",
          "140847.220000",
          "140849.560000",
          "140851.900000",
          "140854.240000",
          "140856.580000",
          "140858.920000",
          "140901.260000",
          "140903.600000",
          "140905.940000",
          "140908.280000",
          "140910.620000",
          "140912.960000",
          "140915.300000",
          "140917.640000",
          "140919.980000",
          "140922.320000",
          "140924.660000",
          "140927.000000",
          "140929.340000",
          "140931.680000",
          "140934.020000",
          "140936.360000",
          "140938.700000",
          "140941.040000",
          "140943.380000",
          "140945.720000",
          "140948.060000",
          "140950.400000",
          "140952.740000",
          "140955.080000",
          "140957.420000",
          "140959.760000",
          "141002.100000",
          "141004.440000",
          "141006.780000",
          "141009.120000",
          "141011.460000",
          "141013.800000",
          "141016.140000",
          "141018.480000",
          "141020.820000",
          "141023.160000",
          "141025.500000",
          "141027.840000",
          "141030.180000",
          "141032.520000",
          "141034.860000",
          "141037.200000",
          "141039.540000",
          "141041.880000",
          "141044.220000",
          "141046.560000",
          "141048.900000",
          "141051.240000",
          "141053.580000",
          "141055.920000",
          "141058.260000",
          "141100.600000",
          "141102.940000",
          "141105.280000",
          "141107.620000",
          "141109.960000",
          "141112.300000",
          "141114.640000",
          "141116.980000",
          "141119.320000",
          "141121.660000",
          "141124.000000",
          "141126.340000",
          "141128.680000",
          "141131.020000",
          "141133.360000",
          "141135.700000",
          "141138.040000",
          "141140.380000",
          "141142.720000",
          "141145.060000",
          "141147.400000",
          "141149.740000",
          "141152.080000",
          "141154.420000",
          "141156.760000",
          "141159.100000",
          "141201.440000",
          "141203.780000",
          "141206.120000",
          "141208.460000",
          "141210.800000",
          "141213.140000",
          "141215.480000",
          "141217.820000",
          "141220.160000",
          "141222.500000",
          "141224.840000",
          "141227.180000",
          "141229.520000",
          "141231.860000",
          "141234.200000",
          "141236.540000",
          "141238.880000",
          "141241.220000",
          "141243.560000"
        ],
        "ContentTime": [
          "140850.217000",
          "140850.221000",
          "140850.224000",
          "140850.227000",
          "140850.229000",
          "140850.232000",
          "140850.235000",
          "140850.237000",
          "140850.240000",
          "140850.243000",
          "140850.245000",
          "140850.248000",
          "140850.250000",
          "140850.253000",
          "140850.256000",
          "140850.258000",
          "140850.261000",
          "140850.264000",
          "140850.266000",
          "140850.269000",
          "140850.272000",
          "140850.275000",
          "140850.277000",
          "140850.280000",
          "140850.283000",
          "140850.285000",
          "140950.210000",
          "140950.213000",
          "140950.216000",
          "140950.219000",
          "140950.222000",
          "140950.224000",
          "140950.227000",
          "140950.231000",
          "140950.233000",
          "140950.236000",
          "140950.239000",
          "140950.247000",
          "140950.249000",
          "140950.252000",
          "140950.255000",
          "140950.258000",
          "140950.260000",
          "140950.263000",
          "140950.266000",
          "140950.269000",
          "140950.272000",
          "140950.274000",
          "140950.277000",
          "140950.281000",
          "140950.284000",
          "141050.210000",
          "141050.222000",
          "141050.225000",
          "141050.228000",
          "141050.231000",
          "141050.234000",
          "141050.237000",
          "141050.240000",
          "141050.243000",
          "141050.246000",
          "141050.248000",
          "141050.251000",
          "141050.254000",
          "141050.257000",
          "141050.260000",
          "141050.263000",
          "141050.266000",
          "141050.269000",
          "141050.271000",
          "141050.279000",
          "141050.282000",
          "141050.285000",
          "141050.288000",
          "141050.291000",
          "141050.294000",
          "141050.297000",
          "141150.210000",
          "141150.214000",
          "141150.216000",
          "141150.219000",
          "141150.222000",
          "141150.224000",
          "141150.227000",
          "141150.230000",
          "141150.232000",
          "141150.235000",
          "141150.237000",
          "141150.240000",
          "141150.247000",
          "141150.249000",
          "141150.252000",
          "141150.255000",
          "141150.257000",
          "141150.260000",
          "141150.263000",
          "141150.265000",
          "141150.268000",
          "141150.271000",
          "141150.274000",
          "141150.277000",
          "141150.279000",
          "141150.282000",
          "141244.807000",
          "141244.818000",
          "141244.822000",
          "141244.825000",
          "141244.829000",
          "141244.834000",
          "141244.836000",
          "141244.839000",
          "141244.842000",
          "141244.846000",
          "141244.849000",
          "141244.852000",
          "141244.854000",
          "141244.859000",
          "141244.862000",
          "141244.866000",
          "141244.869000",
          "141244.874000",
          "141244.877000",
          "141244.880000",
          "141244.883000",
          "141244.886000",
          "141244.889000"
        ],
        "InstanceCreationTime": [
          "140850.217000",
          "140850.221000",
          "140850.224000",
          "140850.227000",
          "140850.229000",
          "140850.232000",
          "140850.235000",
          "140850.237000",
          "140850.240000",
          "140850.243000",
          "140850.245000",
          "140850.248000",
          "140850.250000",
          "140850.253000",
          "140850.256000",
          "140850.258000",
          "140850.261000",
          "140850.264000",
          "140850.266000",
          "140850.269000",
          "140850.272000",
          "140850.275000",
          "140850.277000",
          "140850.280000",
          "140850.283000",
          "140850.285000",
          "140950.210000",
          "140950.213000",
          "140950.216000",
          "140950.219000",
          "140950.222000",
          "140950.224000",
          "140950.227000",
          "140950.231000",
          "140950.233000",
          "140950.236000",
          "140950.239000",
          "140950.247000",
          "140950.249000",
          "140950.252000",
          "140950.255000",
          "140950.258000",
          "140950.260000",
          "140950.263000",
          "140950.266000",
          "140950.269000",
          "140950.272000",
          "140950.274000",
          "140950.277000",
          "140950.281000",
          "140950.284000",
          "141050.210000",
          "141050.222000",
          "141050.225000",
          "141050.228000",
          "141050.231000",
          "141050.234000",
          "141050.237000",
          "141050.240000",
          "141050.243000",
          "141050.246000",
          "141050.248000",
          "141050.251000",
          "141050.254000",
          "141050.257000",
          "141050.260000",
          "141050.263000",
          "141050.266000",
          "141050.269000",
          "141050.271000",
          "141050.279000",
          "141050.282000",
          "141050.285000",
          "141050.288000",
          "141050.291000",
          "141050.294000",
          "141050.297000",
          "141150.210000",
          "141150.214000",
          "141150.216000",
          "141150.219000",
          "141150.222000",
          "141150.224000",
          "141150.227000",
          "141150.230000",
          "141150.232000",
          "141150.235000",
          "141150.237000",
          "141150.240000",
          "141150.247000",
          "141150.249000",
          "141150.252000",
          "141150.255000",
          "141150.257000",
          "141150.260000",
          "141150.263000",
          "141150.265000",
          "141150.268000",
          "141150.271000",
          "141150.274000",
          "141150.277000",
          "141150.279000",
          "141150.282000",
          "141244.807000",
          "141244.818000",
          "141244.822000",
          "141244.825000",
          "141244.829000",
          "141244.834000",
          "141244.836000",
          "141244.839000",
          "141244.842000",
          "141244.846000",
          "141244.849000",
          "141244.852000",
          "141244.854000",
          "141244.859000",
          "141244.862000",
          "141244.866000",
          "141244.869000",
          "141244.874000",
          "141244.877000",
          "141244.880000",
          "141244.883000",
          "141244.886000",
          "141244.889000"
        ],
        "InstanceNumber": [
          1,
          2,
          3,
          4,
          5,
          6,
          7,
          8,
          9,
          10,
          11,
          12,
          13,
          14,
          15,
          16,
          17,
          18,
          19,
          20,
          21,
          22,
          23,
          24,
          25,
          26,
          27,
          28,
          29,
          30,
          31,
          32,
          33,
          34,
          35,
          36,
          37,
          38,
          39,
          40,
          41,
          42,
          43,
          44,
          45,
          46,
          47,
          48,
          49,
          50,
          51,
          52,
          53,
          54,
          55,
          56,
          57,
          58,
          59,
          60,
          61,
          62,
          63,
          64,
          65,
          66,
          67,
          68,
          69,
          70,
          71,
          72,
          73,
          74,
          75,
          76,
          77,
          78,
          79,
          80,
          81,
          82,
          83,
          84,
          85,
          86,
          87,
          88,
          89,
          90,
          91,
          92,
          93,
          94,
          95,
          96,
          97,
          98,
          99,
          100,
          101,
          102,
          103,
          104,
          105,
          106,
          107,
          108,
          109,
          110,
          111,
          112,
          113,
          114,
          115,
          116,
          117,
          118,
          119,
          120,
          121,
          122,
          123,
          124,
          125,
          126
        ],
        "LargestImagePixelValue": [
          2003,
          2275,
          3000,
          1869,
          1910,
          1893,
          2090,
          2928,
          2680,
          1910,
          1895,
          1844,
          1965,
          2391,
          1820,
          1842,
          1928,
          1900,
          1884,
          1996,
          1779,
          1952,
          2546,
          2532,
          1989,
          1984,
          1883,
          2680,
          2541,
          2805,
          1839,
          1886,
          1888,
          1842,
          1903,
          1877,
          1963,
          2108,
          1905,
          1840,
          1824,
          2405,
          1872,
          1935,
          1807,
          2250,
          1843,
          1959,
          2800,
          2732,
          1845,
          1874,
          1891,
          2096,
          1828,
          1763,
          2034,
          1840,
          2149,
          1970,
          1866,
          2326,
          1973,
          1839,
          1932,
          2064,
          1887,
          1910,
          1875,
          1894,
          1865,
          2027,
          1833,
          2091,
          2060,
          1991,
          2075,
          1927,
          1907,
          2030,
          1970,
          1838,
          1980,
          1895,
          1877,
          1965,
          2135,
          1857,
          1923,
          1853,
          2278,
          2999,
          2019,
          1856,
          1978,
          1954,
          1951,
          1847,
          1870,
          1993,
          1834,
          1985,
          1925,
          2961,
          1835,
          1805,
          1881,
          2016,
          1999,
          2547,
          1919,
          2496,
          2755,
          1891,
          1948,
          1794,
          1793,
          1896,
          1944,
          2034,
          1988,
          1829,
          1945,
          2169,
          1919,
          1880
        ],
        "WindowCenter": [
          839.0,
          838.0,
          838.0,
          836.0,
          837.0,
          838.0,
          838.0,
          836.0,
          837.0,
          834.0,
          835.0,
          837.0,
          835.0,
          835.0,
          834.0,
          837.0,
          836.0,
          836.0,
          834.0,
          837.0,
          836.0,
          836.0,
          836.0,
          836.0,
          835.0,
          834.0,
          835.0,
          834.0,
          830.0,
          829.0,
          829.0,
          832.0,
          834.0,
          833.0,
          833.0,
          834.0,
          835.0,
          837.0,
          834.0,
          836.0,
          835.0,
          837.0,
          832.0,
          840.0,
          837.0,
          836.0,
          833.0,
          834.0,
          833.0,
          832.0,
          831.0,
          831.0,
          834.0,
          836.0,
          835.0,
          839.0,
          836.0,
          834.0,
          836.0,
          836.0,
          835.0,
          836.0,
          831.0,
          833.0,
          831.0,
          833.0,
          830.0,
          832.0,
          834.0,
          838.0,
          835.0,
          835.0,
          835.0,
          838.0,
          834.0,
          838.0,
          838.0,
          836.0,
          837.0,
          837.0,
          835.0,
          840.0,
          840.0,
          837.0,
          837.0,
          837.0,
          838.0,
          840.0,
          838.0,
          839.0,
          839.0,
          838.0,
          834.0,
          837.0,
          839.0,
          839.0,
          836.0,
          837.0,
          839.0,
          839.0,
          839.0,
          840.0,
          840.0,
          840.0,
          837.0,
          837.0,
          840.0,
          841.0,
          841.0,
          840.0,
          838.0,
          838.0,
          837.0,
          834.0,
          837.0,
          837.0,
          837.0,
          840.0,
          840.0,
          839.0,
          835.0,
          837.0,
          837.0,
          837.0,
          835.0,
          836.0
        ],
        "WindowWidth": [
          1777.0,
          1776.0,
          1776.0,
          1769.0,
          1772.0,
          1775.0,
          1775.0,
          1771.0,
          1772.0,
          1764.0,
          1766.0,
          1772.0,
          1769.0,
          1769.0,
          1765.0,
          1772.0,
          1771.0,
          1769.0,
          1765.0,
          1773.0,
          1769.0,
          1771.0,
          1769.0,
          1769.0,
          1766.0,
          1765.0,
          1766.0,
          1764.0,
          1756.0,
          1753.0,
          1751.0,
          1759.0,
          1765.0,
          1761.0,
          1761.0,
          1766.0,
          1769.0,
          1771.0,
          1762.0,
          1770.0,
          1768.0,
          1772.0,
          1758.0,
          1780.0,
          1772.0,
          1770.0,
          1762.0,
          1764.0,
          1764.0,
          1761.0,
          1758.0,
          1757.0,
          1764.0,
          1769.0,
          1764.0,
          1776.0,
          1770.0,
          1765.0,
          1771.0,
          1772.0,
          1768.0,
          1770.0,
          1754.0,
          1762.0,
          1758.0,
          1761.0,
          1755.0,
          1760.0,
          1764.0,
          1776.0,
          1767.0,
          1768.0,
          1768.0,
          1775.0,
          1764.0,
          1775.0,
          1776.0,
          1770.0,
          1772.0,
          1773.0,
          1768.0,
          1782.0,
          1780.0,
          1772.0,
          1773.0,
          1772.0,
          1774.0,
          1778.0,
          1777.0,
          1777.0,
          1779.0,
          1777.0,
          1764.0,
          1773.0,
          1779.0,
          1778.0,
          1772.0,
          1772.0,
          1777.0,
          1777.0,
          1777.0,
          1780.0,
          1779.0,
          1783.0,
          1772.0,
          1773.0,
          1780.0,
          1783.0,
          1781.0,
          1782.0,
          1774.0,
          1775.0,
          1775.0,
          1766.0,
          1771.0,
          1770.0,
          1771.0,
          1783.0,
          1779.0,
          1777.0,
          1769.0,
          1774.0,
          1773.0,
          1772.0,
          1767.0,
          1772.0
        ]
      },
      "slices": {}
    }
  },
  "dummy_trs": 0,
  "dvars_nstd": 39.94917887855999,
  "dvars_std": 1.36246644392,
  "dvars_vstd": 1.0569790506400003,
  "efc": 0.5880535649480025,
  "fber": 1736.52685546875,
  "fd_mean": 0.568986199251401,
  "fd_num": 107,
  "fd_perc": 84.92063492063492,
  "fwhm_avg": 1.6130617244405867,
  "fwhm_x": 1.5382633333333333,
  "fwhm_y": 1.7917733333333334,
  "fwhm_z": 1.5091485066550936,
  "gcor": 0.0562972,
  "gsr_x": -0.0014787900727242231,
  "gsr_y": 0.04860204830765724,
  "provenance": {
    "md5sum": "75c600f33d9b3b0c27ee28e9008d2f8c",
    "settings": {
      "fd_thres": 0.2,
      "testing": false
    },
    "software": "mriqc",
    "version": "22.0.1",
    "webapi_port": null,
    "webapi_url": "https://mriqc.nimh.nih.gov/api/v1"
  },
  "size_t": 126,
  "size_x": 64,
  "size_y": 64,
  "size_z": 34,
  "snr": 7.306869334875427,
  "spacing_tr": 2.3399999141693115,
  "spacing_x": 3.0,
  "spacing_y": 3.0,
  "spacing_z": 3.299999952316284,
  "summary_bg_k": 29.016638521385495,
  "summary_bg_mad": 10.166414606644274,
  "summary_bg_mean": 40.29176712036133,
  "summary_bg_median": 22.793651580810547,
  "summary_bg_n": 70285.0,
  "summary_bg_p05": 12.880952835083008,
  "summary_bg_p95": 133.73809814453125,
  "summary_bg_stdv": 56.11393737792969,
  "summary_fg_k": 2.9506713130706483,
  "summary_fg_mad": 127.7802403628645,
  "summary_fg_mean": 972.447265625,
  "summary_fg_median": 973.2064208984375,
  "summary_fg_n": 36630.0,
  "summary_fg_p05": 777.8440856933594,
  "summary_fg_p95": 1173.0643920898438,
  "summary_fg_stdv": 133.1887969970703,
  "tsnr": 51.704777490813285
}