{
  "aor": 0.020377421875,
  "aqi": 0.028143176171875003,
  "bids_meta": {
    "AcquisitionMatrixPE": 64,
    "AcquisitionNumber": 1,
    "AcquisitionTime": "10:33:16.700000",
    "BandwidthPerPixelPhaseEncode": 24.038,
    "BaseResolution": 64,
    "BodyPartExamined": "HEAD",
    "ConsistencyInfo": "N4_VD13A_LATEST_20120616",
    "ConversionSoftware": "dcm2niix",
    "ConversionSoftwareVersion": "v1.0.20181125  GCC6.3.0",
    "DerivedVendorReportedEchoSpacing": 0.000650012,
    "DeviceSerialNumber": "45250",
    "DwellTime": 4.6e-06,
    "EchoTime": 0.033,
    "EchoTrainLength": 64,
    "EffectiveEchoSpacing": 0.000650012,
    "FlipAngle": 90,
    "ImageOrientationPatientDICOM": [
      0.999919,
      -0.00499405,
      -0.0116812,
      0.00349035,
      0.992103,
      -0.125376
    ],
    "ImageType": [
      "ORIGINAL",
      "PRIMARY",
      "M",
      "ND",
      "NORM",
      "MOSAIC"
    ],
    "ImagingFrequency": 123.22,
    "InPlanePhaseEncodingDirectionDICOM": "COL",
    "InstitutionAddress": "Kopernikusstr._26_Graz_Graz_AT_8010",
    "InstitutionName": "KFU",
    "InstitutionalDepartmentName": "Department",
    "MRAcquisitionType": "2D",
    "MagneticFieldStrength": 3,
    "Manufacturer": "Siemens",
    "ManufacturersModelName": "Skyra",
    "Modality": "MR",
    "PartialFourier": 1,
    "PatientPosition": "HFS",
    "PercentPhaseFOV": 100,
    "PhaseEncodingDirection": "j-",
    "PhaseEncodingSteps": 64,
    "PhaseResolution": 1,
    "PixelBandwidth": 1700,
    "ProcedureStepDescription": "KFU_Entw-Psy",
    "ProtocolName": "fMRI_2",
    "PulseSequenceDetails": "%SiemensSeq%_ep2d_pace",
    "ReceiveCoilActiveElements": "HE1-4",
    "ReceiveCoilName": "HeadNeck_20",
    "ReconMatrixPE": 64,
    "RepetitionTime": 2.34,
    "SAR": 0.188579,
    "ScanOptions": "FS",
    "ScanningSequence": "EP",
    "SequenceName": "_epfid2d1_64",
    "SequenceVariant": "SK",
    "SeriesDescription": "fMRI_2",
    "SeriesNumber": 5,
    "ShimSetting": [
      -1542,
      -3881,
      -4309,
      494,
      646,
      -4,
      468,
      -8
    ],
    "SliceThickness": 3,
    "SliceTiming": [
      2.2525,
      2.185,
      2.115,
      2.0475,
      1.98,
      1.91,
      1.8425,
      1.775,
      1.7075,
      1.6375,
      1.57,
      1.5025,
      1.4325,
      1.365,
      1.2975,
      1.23,
      1.16,
      1.0925,
      1.025,
      0.955,
      0.8875,
      0.82,
      0.75,
      0.6825,
      0.615,
      0.5475,
      0.4775,
      0.41,
      0.3425,
      0.2725,
      0.205,
      0.1375,
      0.07,
      0
    ],
    "SoftwareVersions": "syngo_MR_D13",
    "SpacingBetweenSlices": 3.3,
    "StationName": "FBMTMR1",
    "TaskName": "read",
    "TotalReadoutTime": 0.0409508,
    "TxRefAmp": 338.505,
    "dataset": "ds003126",
    "dcmmeta_affine": [
      [
        -2.999758005142212,
        0.010471048764884472,
        -0.04030995070934296,
        96.52511596679688
      ],
      [
        0.014982162043452263,
        2.9763095378875732,
        -0.41357308626174927,
        -111.88003540039062
      ],
      [
        -0.03504373878240585,
        0.3761281967163086,
        3.273733615875244,
        -13.846137046813965
      ],
      [
        0.0,
        0.0,
        0.0,
        1.0
      ]
    ],
    "dcmmeta_reorient_transform": [
      [
        0.0,
        -1.0,
        0.0,
        63.0
      ],
      [
        1.0,
        0.0,
        0.0,
        0.0
      ],
      [
        0.0,
        0.0,
        1.0,
        0.0
      ],
      [
        0.0,
        0.0,
        0.0,
        1.0
      ]
    ],
    "dcmmeta_shape": [
      64,
      64,
      34,
      128
    ],
    "dcmmeta_slice_dim": 2,
    "dcmmeta_version": 0.6,
    "global": {
      "const": {
        "AcquisitionMatrix": [
          64,
          0,
          0,
          64
        ],
        "AngioFlag": "N",
        "BitsAllocated": 16,
        "BitsStored": 12,
        "BodyPartExamined": "HEAD",
        "Columns": 384,
        "EchoNumbers": 1,
        "EchoTime": 33.0,
        "EchoTrainLength": 64,
        "FlipAngle": 90.0,
        "HighBit": 11,
        "ImageOrientationPatient": [
          0.99991930069558,
          -0.0049940540672,
          -0.0116812465273,
          0.00349034969886,
          0.99210314960338,
          -0.1253760663206
        ],
        "ImagePositionPatient": [
          -578.82142711303,
          -549.43982544851,
          75.63744937232
        ],
        "ImageType": [
          "ORIGINAL",
          "PRIMARY",
          "M",
          "ND",
          "NORM",
          "MOSAIC"
        ],
        "ImagedNucleus": "1H",
        "ImagingFrequency": 123.219968,
        "InPlanePhaseEncodingDirection": "COL",
        "MRAcquisitionType": "2D",
        "MagneticFieldStrength": 3.0,
        "Manufacturer": "SIEMENS",
        "ManufacturerModelName": "Skyra",
        "Modality": "MR",
        "NumberOfAverages": 1.0,
        "NumberOfPhaseEncodingSteps": 64,
        "PercentPhaseFieldOfView": 100.0,
        "PercentSampling": 100.0,
        "PerformedProcedureStepStartTime": "102352.252000",
        "PhotometricInterpretation": "MONOCHROME2",
        "PixelBandwidth": 1700.0,
        "PixelRepresentation": 0,
        "PixelSpacing": [
          3.0,
          3.0
        ],
        "ProtocolName": "fMRI_2",
        "RepetitionTime": 2340.0,
        "Rows": 384,
        "SAR": 0.18857892514625,
        "SamplesPerPixel": 1,
        "ScanOptions": "FS",
        "ScanningSequence": "EP",
        "SequenceName": "*epfid2d1_64",
        "SequenceVariant": "SK",
        "SeriesDescription": "fMRI_2",
        "SeriesNumber": 5,
        "SeriesTime": "103408.142000",
        "SliceLocation": -0.8936114751889,
        "SliceThickness": 3.0,
        "SmallestImagePixelValue": 0,
        "SoftwareVersions": "syngo MR D13",
        "SpacingBetweenSlices": 3.2999999172253,
        "SpecificCharacterSet": "ISO_IR 100",
        "StudyID": "1",
        "StudyTime": "102352.197000",
        "TransmitCoilName": "Body",
        "VariableFlipAngleFlag": "N",
        "WindowCenterWidthExplanation": "Algo1",
        "dBdt": 0.0
      },
      "slices": {}
    },
    "modality": "bold",
    "run_id": 2,
    "session_id": "2",
    "subject_id": "047EPKL012071",
    "task_id": "read",
    "time": {
      "samples": {
        "AcquisitionNumber": [
          1,
          2,
          3,
          4,
          5,
          6,
          7,
          8,
          9,
          10,
          11,
          12,
          13,
          14,
          15,
          16,
          17,
          18,
          19,
          20,
          21,
          22,
          23,
          24,
          25,
          26,
          27,
          28,
          29,
          30,
          31,
          32,
          33,
          34,
          35,
          36,
          37,
          38,
          39,
          40,
          41,
          42,
          43,
          44,
          45,
          46,
          47,
          48,
          49,
          50,
          51,
          52,
          53,
          54,
          55,
          56,
          57,
          58,
          59,
          60,
          61,
          62,
          63,
          64,
          65,
          66,
          67,
          68,
          69,
          70,
          71,
          72,
          73,
          74,
          75,
          76,
          77,
          78,
          79,
          80,
          81,
          82,
          83,
          84,
          85,
          86,
          87,
          88,
          89,
          90,
          91,
          92,
          93,
          94,
          95,
          96,
          97,
          98,
          99,
          100,
          101,
          102,
          103,
          104,
          105,
          106,
          107,
          108,
          109,
          110,
          111,
          112,
          113,
          114,
          115,
          116,
          117,
          118,
          119,
          120,
          121,
          122,
          123,
          124,
          125,
          126,
          127,
          128
        ],
        "AcquisitionTime": [
          "103316.700000",
          "103319.040000",
          "103321.380000",
          "103323.720000",
          "103326.060000",
          "103328.400000",
          "103330.740000",
          "103333.080000",
          "103335.420000",
          "103337.760000",
          "103340.100000",
          "103342.440000",
          "103344.780000",
          "103347.120000",
          "103349.460000",
          "103351.800000",
          "103354.140000",
          "103356.480000",
          "103358.820000",
          "103401.160000",
          "103403.500000",
          "103405.840000",
          "103408.180000",
          "103410.520000",
          "103412.860000",
          "103415.200000",
          "103417.540000",
          "103419.880000",
          "103422.220000",
          "103424.560000",
          "103426.900000",
          "103429.240000",
          "103431.580000",
          "103433.920000",
          "103436.260000",
          "103438.600000",
          "103440.940000",
          "103443.280000",
          "103445.620000",
          "103447.960000",
          "103450.300000",
          "103452.640000",
          "103454.980000",
          "103457.320000",
          "103459.660000",
          "103502.000000",
          "103504.340000",
          "103506.680000",
          "103509.020000",
          "103511.360000",
          "103513.700000",
          "103516.040000",
          "103518.380000",
          "103520.720000",
          "103523.060000",
          "103525.400000",
          "103527.740000",
          "103530.080000",
          "103532.420000",
          "103534.760000",
          "103537.100000",
          "103539.440000",
          "103541.780000",
          "103544.120000",
          "103546.460000",
          "103548.800000",
          "103551.140000",
          "103553.480000",
          "103555.820000",
          "103558.160000",
          "103600.500000",
          "103602.840000",
          "103605.180000",
          "103607.520000",
          "103609.860000",
          "103612.200000",
          "103614.540000",
          "103616.880000",
          "103619.220000",
          "103621.560000",
          "103623.900000",
          "103626.240000",
          "103628.580000",
          "103630.920000",
          "103633.260000",
          "103635.600000",
          "103637.940000",
          "103640.280000",
          "103642.620000",
          "103644.960000",
          "103647.300000",
          "103649.640000",
          "103651.980000",
          "103654.320000",
          "103656.660000",
          "103659.000000",
          "103701.340000",
          "103703.680000",
          "103706.020000",
          "103708.360000",
          "103710.700000",
          "103713.040000",
          "103715.380000",
          "103717.720000",
          "103720.060000",
          "103722.400000",
          "103724.740000",
          "103727.080000",
          "103729.420000",
          "103731.760000",
          "103734.100000",
          "103736.440000",
          "103738.780000",
          "103741.120000",
          "103743.460000",
          "103745.800000",
          "103748.140000",
          "103750.480000",
          "103752.820000",
          "103755.160000",
          "103757.500000",
          "103759.840000",
          "103802.180000",
          "103804.520000",
          "103806.860000",
          "103809.200000",
          "103811.540000",
          "103813.880000"
        ],
        "ContentTime": [
          "103408.146000",
          "103408.150000",
          "103408.153000",
          "103408.155000",
          "103408.158000",
          "103408.160000",
          "103408.163000",
          "103408.166000",
          "103408.168000",
          "103408.171000",
          "103408.173000",
          "103408.176000",
          "103408.185000",
          "103408.188000",
          "103408.191000",
          "103408.194000",
          "103408.196000",
          "103408.199000",
          "103408.201000",
          "103408.204000",
          "103408.207000",
          "103408.210000",
          "103508.141000",
          "103508.145000",
          "103508.147000",
          "103508.150000",
          "103508.153000",
          "103508.156000",
          "103508.159000",
          "103508.161000",
          "103508.164000",
          "103508.167000",
          "103508.170000",
          "103508.173000",
          "103508.175000",
          "103508.178000",
          "103508.181000",
          "103508.184000",
          "103508.187000",
          "103508.190000",
          "103508.193000",
          "103508.196000",
          "103508.198000",
          "103508.201000",
          "103508.204000",
          "103508.207000",
          "103508.210000",
          "103508.212000",
          "103608.140000",
          "103608.144000",
          "103608.147000",
          "103608.149000",
          "103608.152000",
          "103608.155000",
          "103608.158000",
          "103608.161000",
          "103608.163000",
          "103608.166000",
          "103608.169000",
          "103608.172000",
          "103608.175000",
          "103608.177000",
          "103608.180000",
          "103608.184000",
          "103608.188000",
          "103608.191000",
          "103608.194000",
          "103608.197000",
          "103608.199000",
          "103608.202000",
          "103608.206000",
          "103608.210000",
          "103608.212000",
          "103708.140000",
          "103708.143000",
          "103708.146000",
          "103708.149000",
          "103708.152000",
          "103708.154000",
          "103708.157000",
          "103708.160000",
          "103708.162000",
          "103708.165000",
          "103708.168000",
          "103708.171000",
          "103708.174000",
          "103708.177000",
          "103708.179000",
          "103708.182000",
          "103708.185000",
          "103708.188000",
          "103708.190000",
          "103708.193000",
          "103708.195000",
          "103708.198000",
          "103708.201000",
          "103708.203000",
          "103708.206000",
          "103708.208000",
          "103808.141000",
          "103808.145000",
          "103808.148000",
          "103808.151000",
          "103808.154000",
          "103808.157000",
          "103808.160000",
          "103808.163000",
          "103808.165000",
          "103808.168000",
          "103808.171000",
          "103808.174000",
          "103808.177000",
          "103808.180000",
          "103808.182000",
          "103808.185000",
          "103808.188000",
          "103808.191000",
          "103808.194000",
          "103808.197000",
          "103808.199000",
          "103808.202000",
          "103808.205000",
          "103808.208000",
          "103808.210000",
          "103808.213000",
          "103816.555000",
          "103816.558000",
          "103816.562000"
        ],
        "InstanceCreationTime": [
          "103408.146000",
          "103408.150000",
          "103408.153000",
          "103408.155000",
          "103408.158000",
          "103408.160000",
          "103408.163000",
          "103408.166000",
          "103408.168000",
          "103408.171000",
          "103408.173000",
          "103408.176000",
          "103408.185000",
          "103408.188000",
          "103408.191000",
          "103408.194000",
          "103408.196000",
          "103408.199000",
          "103408.201000",
          "103408.204000",
          "103408.207000",
          "103408.210000",
          "103508.141000",
          "103508.145000",
          "103508.147000",
          "103508.150000",
          "103508.153000",
          "103508.156000",
          "103508.159000",
          "103508.161000",
          "103508.164000",
          "103508.167000",
          "103508.170000",
          "103508.173000",
          "103508.175000",
          "103508.178000",
          "103508.181000",
          "103508.184000",
          "103508.187000",
          "103508.190000",
          "103508.193000",
          "103508.196000",
          "103508.198000",
          "103508.201000",
          "103508.204000",
          "103508.207000",
          "103508.210000",
          "103508.212000",
          "103608.140000",
          "103608.144000",
          "103608.147000",
          "103608.149000",
          "103608.152000",
          "103608.155000",
          "103608.158000",
          "103608.161000",
          "103608.163000",
          "103608.166000",
          "103608.169000",
          "103608.172000",
          "103608.175000",
          "103608.177000",
          "103608.180000",
          "103608.184000",
          "103608.188000",
          "103608.191000",
          "103608.194000",
          "103608.197000",
          "103608.199000",
          "103608.202000",
          "103608.206000",
          "103608.210000",
          "103608.212000",
          "103708.140000",
          "103708.143000",
          "103708.146000",
          "103708.149000",
          "103708.152000",
          "103708.154000",
          "103708.157000",
          "103708.160000",
          "103708.162000",
          "103708.165000",
          "103708.168000",
          "103708.171000",
          "103708.174000",
          "103708.177000",
          "103708.179000",
          "103708.182000",
          "103708.185000",
          "103708.188000",
          "103708.190000",
          "103708.193000",
          "103708.195000",
          "103708.198000",
          "103708.201000",
          "103708.203000",
          "103708.206000",
          "103708.208000",
          "103808.141000",
          "103808.145000",
          "103808.148000",
          "103808.151000",
          "103808.154000",
          "103808.157000",
          "103808.160000",
          "103808.163000",
          "103808.165000",
          "103808.168000",
          "103808.171000",
          "103808.174000",
          "103808.177000",
          "103808.180000",
          "103808.182000",
          "103808.185000",
          "103808.188000",
          "103808.191000",
          "103808.194000",
          "103808.197000",
          "103808.199000",
          "103808.202000",
          "103808.205000",
          "103808.208000",
          "103808.210000",
          "103808.213000",
          "103816.555000",
          "103816.558000",
          "103816.562000"
        ],
        "InstanceNumber": [
          1,
          2,
          3,
          4,
          5,
          6,
          7,
          8,
          9,
          10,
          11,
          12,
          13,
          14,
          15,
          16,
          17,
          18,
          19,
          20,
          21,
          22,
          23,
          24,
          25,
          26,
          27,
          28,
          29,
          30,
          31,
          32,
          33,
          34,
          35,
          36,
          37,
          38,
          39,
          40,
          41,
          42,
          43,
          44,
          45,
          46,
          47,
          48,
          49,
          50,
          51,
          52,
          53,
          54,
          55,
          56,
          57,
          58,
          59,
          60,
          61,
          62,
          63,
          64,
          65,
          66,
          67,
          68,
          69,
          70,
          71,
          72,
          73,
          74,
          75,
          76,
          77,
          78,
          79,
          80,
          81,
          82,
          83,
          84,
          85,
          86,
          87,
          88,
          89,
          90,
          91,
          92,
          93,
          94,
          95,
          96,
          97,
          98,
          99,
          100,
          101,
          102,
          103,
          104,
          105,
          106,
          107,
          108,
          109,
          110,
          111,
          112,
          113,
          114,
          115,
          116,
          117,
          118,
          119,
          120,
          121,
          122,
          123,
          124,
          125,
          126,
          127,
          128
        ],
        "LargestImagePixelValue": [
          2693,
          2811,
          2213,
          1908,
          1893,
          1742,
          1779,
          2317,
          2317,
          1798,
          1833,
          1770,
          1764,
          2549,
          2614,
          1904,
          1935,
          1747,
          2360,
          2401,
          2172,
          1875,
          2129,
          2152,
          2269,
          2112,
          2194,
          1833,
          1906,
          2315,
          1831,
          1941,
          2121,
          2574,
          2296,
          1927,
          1783,
          2146,
          2505,
          1829,
          2234,
          2515,
          1886,
          2428,
          1742,
          1820,
          2139,
          2032,
          1971,
          2452,
          2548,
          1959,
          1729,
          2162,
          2269,
          1831,
          1919,
          2450,
          2375,
          2138,
          2203,
          2024,
          1825,
          2040,
          2140,
          1840,
          2144,
          1739,
          1722,
          2668,
          3121,
          1940,
          1667,
          2499,
          2516,
          1810,
          1717,
          2456,
          1794,
          1947,
          1844,
          2276,
          1814,
          1778,
          2251,
          2591,
          2533,
          2584,
          2443,
          1926,
          1940,
          1950,
          1887,
          1791,
          2705,
          2335,
          1864,
          1833,
          1756,
          2107,
          2594,
          2709,
          1972,
          1865,
          1767,
          1890,
          2468,
          2520,
          2285,
          1837,
          2150,
          2220,
          2005,
          1776,
          2561,
          2705,
          1810,
          2587,
          2363,
          2424,
          2259,
          1782,
          1722,
          2639,
          2557,
          2984,
          1836,
          1820
        ],
        "WindowCenter": [
          798.0,
          794.0,
          787.0,
          787.0,
          787.0,
          790.0,
          793.0,
          796.0,
          792.0,
          788.0,
          791.0,
          793.0,
          794.0,
          795.0,
          792.0,
          793.0,
          793.0,
          793.0,
          794.0,
          794.0,
          793.0,
          792.0,
          792.0,
          794.0,
          794.0,
          793.0,
          792.0,
          792.0,
          794.0,
          793.0,
          790.0,
          791.0,
          794.0,
          794.0,
          793.0,
          793.0,
          791.0,
          793.0,
          794.0,
          795.0,
          795.0,
          793.0,
          790.0,
          793.0,
          792.0,
          793.0,
          794.0,
          793.0,
          796.0,
          799.0,
          794.0,
          793.0,
          793.0,
          795.0,
          793.0,
          793.0,
          793.0,
          796.0,
          794.0,
          793.0,
          793.0,
          794.0,
          794.0,
          794.0,
          796.0,
          794.0,
          794.0,
          793.0,
          791.0,
          794.0,
          795.0,
          793.0,
          791.0,
          799.0,
          793.0,
          790.0,
          790.0,
          792.0,
          791.0,
          795.0,
          793.0,
          794.0,
          794.0,
          795.0,
          798.0,
          797.0,
          797.0,
          796.0,
          795.0,
          792.0,
          794.0,
          795.0,
          798.0,
          798.0,
          797.0,
          795.0,
          793.0,
          798.0,
          796.0,
          797.0,
          798.0,
          796.0,
          791.0,
          793.0,
          795.0,
          798.0,
          799.0,
          797.0,
          795.0,
          797.0,
          797.0,
          796.0,
          796.0,
          798.0,
          800.0,
          798.0,
          795.0,
          798.0,
          797.0,
          795.0,
          795.0,
          799.0,
          792.0,
          793.0,
          795.0,
          792.0,
          785.0,
          790.0
        ],
        "WindowWidth": [
          1687.0,
          1675.0,
          1659.0,
          1658.0,
          1659.0,
          1666.0,
          1671.0,
          1682.0,
          1671.0,
          1661.0,
          1669.0,
          1674.0,
          1676.0,
          1679.0,
          1672.0,
          1673.0,
          1672.0,
          1673.0,
          1677.0,
          1676.0,
          1674.0,
          1671.0,
          1673.0,
          1677.0,
          1677.0,
          1673.0,
          1673.0,
          1671.0,
          1678.0,
          1674.0,
          1667.0,
          1669.0,
          1675.0,
          1676.0,
          1673.0,
          1674.0,
          1669.0,
          1675.0,
          1676.0,
          1679.0,
          1679.0,
          1675.0,
          1667.0,
          1675.0,
          1670.0,
          1674.0,
          1676.0,
          1675.0,
          1681.0,
          1688.0,
          1677.0,
          1673.0,
          1674.0,
          1679.0,
          1674.0,
          1673.0,
          1673.0,
          1681.0,
          1677.0,
          1675.0,
          1674.0,
          1676.0,
          1675.0,
          1677.0,
          1680.0,
          1677.0,
          1675.0,
          1676.0,
          1668.0,
          1676.0,
          1677.0,
          1674.0,
          1667.0,
          1688.0,
          1674.0,
          1668.0,
          1667.0,
          1672.0,
          1669.0,
          1679.0,
          1674.0,
          1676.0,
          1675.0,
          1677.0,
          1687.0,
          1685.0,
          1684.0,
          1683.0,
          1679.0,
          1669.0,
          1676.0,
          1680.0,
          1685.0,
          1686.0,
          1685.0,
          1678.0,
          1673.0,
          1685.0,
          1680.0,
          1685.0,
          1686.0,
          1679.0,
          1668.0,
          1675.0,
          1676.0,
          1686.0,
          1688.0,
          1684.0,
          1680.0,
          1682.0,
          1684.0,
          1681.0,
          1680.0,
          1686.0,
          1689.0,
          1685.0,
          1678.0,
          1685.0,
          1683.0,
          1679.0,
          1678.0,
          1683.0,
          1676.0,
          1675.0,
          1677.0,
          1667.0,
          1650.0,
          1671.0
        ]
      },
      "slices": {}
    }
  },
  "dummy_trs": 0,
  "dvars_nstd": 43.93825230645671,
  "dvars_std": 1.3732421055118116,
  "dvars_vstd": 1.1527827126771657,
  "efc": 0.5784132737539189,
  "fber": 1570.916748046875,
  "fd_mean": 0.9621694663133856,
  "fd_num": 116,
  "fd_perc": 90.625,
  "fwhm_avg": 1.7402661693251023,
  "fwhm_x": 1.6303733333333332,
  "fwhm_y": 1.98991,
  "fwhm_z": 1.600515174641973,
  "gcor": 0.0425703,
  "gsr_x": -0.011676046997308731,
  "gsr_y": 0.046097029000520706,
  "provenance": {
    "md5sum": "11854de2a34fba68d6ffe21c05a46378",
    "settings": {
      "fd_thres": 0.2,
      "testing": false
    },
    "software": "mriqc",
    "version": "22.0.1",
    "webapi_port": null,
    "webapi_url": "https://mriqc.nimh.nih.gov/api/v1"
  },
  "size_t": 128,
  "size_x": 64,
  "size_y": 64,
  "size_z": 34,
  "snr": 7.762083278979503,
  "spacing_tr": 2.3399999141693115,
  "spacing_x": 3.0,
  "spacing_y": 3.0,
  "spacing_z": 3.299999952316284,
  "summary_bg_k": 42.314724325827434,
  "summary_bg_mad": 9.636914420286413,
  "summary_bg_mean": 37.80552673339844,
  "summary_bg_median": 22.421875,
  "summary_bg_n": 72071.0,
  "summary_bg_p05": 12.4609375,
  "summary_bg_p95": 107.75,
  "summary_bg_stdv": 49.407752990722656,
  "summary_fg_k": 3.6780603681274426,
  "summary_fg_mad": 102.18372477856579,
  "summary_fg_mean": 917.1471557617188,
  "summary_fg_median": 918.31640625,
  "summary_fg_n": 34342.0,
  "summary_fg_p05": 736.851953125,
  "summary_fg_p95": 1094.3472656249996,
  "summary_fg_stdv": 118.30625915527344,
  "tsnr": 42.18430000171065
}