{
  "aor": 0.010278888888888884,
  "aqi": 0.023393231428571432,
  "bids_meta": {
    "AcquisitionMatrixPE": 64,
    "AcquisitionNumber": 1,
    "AcquisitionTime": "15:52:55.210000",
    "BandwidthPerPixelPhaseEncode": 24.038,
    "BaseResolution": 64,
    "BodyPartExamined": "HEAD",
    "ConsistencyInfo": "N4_VD13A_LATEST_20120616",
    "ConversionSoftware": "dcm2niix",
    "ConversionSoftwareVersion": "v1.0.20181125  GCC6.3.0",
    "DerivedVendorReportedEchoSpacing": 0.000650012,
    "DeviceSerialNumber": "45250",
    "DwellTime": 4.6e-06,
    "EchoTime": 0.033,
    "EchoTrainLength": 64,
    "EffectiveEchoSpacing": 0.000650012,
    "FlipAngle": 90,
    "ImageOrientationPatientDICOM": [
      0.999919,
      0.000476144,
      -0.0126951,
      -0.00349036,
      0.971138,
      -0.238492
    ],
    "ImageType": [
      "ORIGINAL",
      "PRIMARY",
      "M",
      "ND",
      "NORM",
      "MOSAIC"
    ],
    "ImagingFrequency": 123.213,
    "InPlanePhaseEncodingDirectionDICOM": "COL",
    "InstitutionAddress": "Kopernikusstr._26_Graz_Graz_AT_8010",
    "InstitutionName": "KFU",
    "InstitutionalDepartmentName": "Department",
    "MRAcquisitionType": "2D",
    "MagneticFieldStrength": 3,
    "Manufacturer": "Siemens",
    "ManufacturersModelName": "Skyra",
    "Modality": "MR",
    "PartialFourier": 1,
    "PatientPosition": "HFS",
    "PercentPhaseFOV": 100,
    "PhaseEncodingDirection": "j-",
    "PhaseEncodingSteps": 64,
    "PhaseResolution": 1,
    "PixelBandwidth": 1700,
    "ProcedureStepDescription": "KFU_Entw-Psy",
    "ProtocolName": "fMRI_1",
    "PulseSequenceDetails": "%SiemensSeq%_ep2d_pace",
    "ReceiveCoilActiveElements": "HE1-4",
    "ReceiveCoilName": "HeadNeck_20",
    "ReconMatrixPE": 64,
    "RepetitionTime": 2.34,
    "SAR": 0.19438,
    "ScanOptions": "FS",
    "ScanningSequence": "EP",
    "SequenceName": "_epfid2d1_64",
    "SequenceVariant": "SK",
    "SeriesDescription": "fMRI_1",
    "SeriesNumber": 5,
    "ShimSetting": [
      -1555,
      -3639,
      -4390,
      401,
      482,
      198,
      244,
      -276
    ],
    "SliceThickness": 3,
    "SliceTiming": [
      2.2525,
      2.185,
      2.115,
      2.0475,
      1.98,
      1.9125,
      1.8425,
      1.775,
      1.7075,
      1.6375,
      1.57,
      1.5025,
      1.435,
      1.365,
      1.2975,
      1.23,
      1.16,
      1.0925,
      1.025,
      0.955,
      0.8875,
      0.82,
      0.7525,
      0.6825,
      0.615,
      0.5475,
      0.4775,
      0.41,
      0.3425,
      0.275,
      0.205,
      0.1375,
      0.07,
      0
    ],
    "SoftwareVersions": "syngo_MR_D13",
    "SpacingBetweenSlices": 3.3,
    "StationName": "FBMTMR1",
    "TaskName": "read",
    "TotalReadoutTime": 0.0409508,
    "TxRefAmp": 368.46,
    "dataset": "ds003126",
    "dcmmeta_affine": [
      [
        -2.999758005142212,
        -0.01047109067440033,
        -0.04030998796224594,
        97.17432403564453
      ],
      [
        -0.001428432879038155,
        2.913414716720581,
        -0.787105917930603,
        -101.7462158203125
      ],
      [
        -0.038085322827100754,
        0.7154756188392639,
        3.204503059387207,
        -31.374759674072266
      ],
      [
        0.0,
        0.0,
        0.0,
        1.0
      ]
    ],
    "dcmmeta_reorient_transform": [
      [
        0.0,
        -1.0,
        0.0,
        63.0
      ],
      [
        1.0,
        0.0,
        0.0,
        0.0
      ],
      [
        0.0,
        0.0,
        1.0,
        0.0
      ],
      [
        0.0,
        0.0,
        0.0,
        1.0
      ]
    ],
    "dcmmeta_shape": [
      64,
      64,
      34,
      126
    ],
    "dcmmeta_slice_dim": 2,
    "dcmmeta_version": 0.6,
    "global": {
      "const": {
        "AcquisitionMatrix": [
          64,
          0,
          0,
          64
        ],
        "AngioFlag": "N",
        "BitsAllocated": 16,
        "BitsStored": 12,
        "BodyPartExamined": "HEAD",
        "Columns": 384,
        "EchoNumbers": 1,
        "EchoTime": 33.0,
        "EchoTrainLength": 64,
        "FlipAngle": 90.0,
        "HighBit": 11,
        "ImageOrientationPatient": [
          0.99991930050908,
          0.00047614431069,
          -0.012695107563,
          -0.0034903635593,
          0.97113822138596,
          -0.2384918705649
        ],
        "ImagePositionPatient": [
          -574.80053616891,
          -548.17380042252,
          134.26995352152
        ],
        "ImageType": [
          "ORIGINAL",
          "PRIMARY",
          "M",
          "ND",
          "NORM",
          "MOSAIC"
        ],
        "ImagedNucleus": "1H",
        "ImagingFrequency": 123.212703,
        "InPlanePhaseEncodingDirection": "COL",
        "MRAcquisitionType": "2D",
        "MagneticFieldStrength": 3.0,
        "Manufacturer": "SIEMENS",
        "ManufacturerModelName": "Skyra",
        "Modality": "MR",
        "NumberOfAverages": 1.0,
        "NumberOfPhaseEncodingSteps": 64,
        "PercentPhaseFieldOfView": 100.0,
        "PercentSampling": 100.0,
        "PerformedProcedureStepStartTime": "153446.772000",
        "PhotometricInterpretation": "MONOCHROME2",
        "PixelBandwidth": 1700.0,
        "PixelRepresentation": 0,
        "PixelSpacing": [
          3.0,
          3.0
        ],
        "ProtocolName": "fMRI_1",
        "RepetitionTime": 2340.0,
        "Rows": 384,
        "SAR": 0.19437972722724,
        "SamplesPerPixel": 1,
        "ScanOptions": "FS",
        "ScanningSequence": "EP",
        "SequenceName": "*epfid2d1_64",
        "SequenceVariant": "SK",
        "SeriesDescription": "fMRI_1",
        "SeriesNumber": 5,
        "SeriesTime": "155345.668000",
        "SliceLocation": -7.3856238861785,
        "SliceThickness": 3.0,
        "SmallestImagePixelValue": 0,
        "SoftwareVersions": "syngo MR D13",
        "SpacingBetweenSlices": 3.3000000140187,
        "SpecificCharacterSet": "ISO_IR 100",
        "StudyID": "1",
        "StudyTime": "153446.674000",
        "TransmitCoilName": "Body",
        "VariableFlipAngleFlag": "N",
        "WindowCenterWidthExplanation": "Algo1",
        "dBdt": 0.0
      },
      "slices": {}
    },
    "modality": "bold",
    "run_id": 1,
    "session_id": "2",
    "subject_id": "047EPKL011049",
    "task_id": "read",
    "time": {
      "samples": {
        "AcquisitionNumber": [
          1,
          2,
          3,
          4,
          5,
          6,
          7,
          8,
          9,
          10,
          11,
          12,
          13,
          14,
          15,
          16,
          17,
          18,
          19,
          20,
          21,
          22,
          23,
          24,
          25,
          26,
          27,
          28,
          29,
          30,
          31,
          32,
          33,
          34,
          35,
          36,
          37,
          38,
          39,
          40,
          41,
          42,
          43,
          44,
          45,
          46,
          47,
          48,
          49,
          50,
          51,
          52,
          53,
          54,
          55,
          56,
          57,
          58,
          59,
          60,
          61,
          62,
          63,
          64,
          65,
          66,
          67,
          68,
          69,
          70,
          71,
          72,
          73,
          74,
          75,
          76,
          77,
          78,
          79,
          80,
          81,
          82,
          83,
          84,
          85,
          86,
          87,
          88,
          89,
          90,
          91,
          92,
          93,
          94,
          95,
          96,
          97,
          98,
          99,
          100,
          101,
          102,
          103,
          104,
          105,
          106,
          107,
          108,
          109,
          110,
          111,
          112,
          113,
          114,
          115,
          116,
          117,
          118,
          119,
          120,
          121,
          122,
          123,
          124,
          125,
          126
        ],
        "AcquisitionTime": [
          "155255.210000",
          "155257.550000",
          "155259.890000",
          "155302.230000",
          "155304.570000",
          "155306.910000",
          "155309.250000",
          "155311.590000",
          "155313.930000",
          "155316.270000",
          "155318.610000",
          "155320.950000",
          "155323.290000",
          "155325.630000",
          "155327.970000",
          "155330.310000",
          "155332.650000",
          "155334.990000",
          "155337.330000",
          "155339.670000",
          "155342.010000",
          "155344.350000",
          "155346.690000",
          "155349.030000",
          "155351.370000",
          "155353.710000",
          "155356.050000",
          "155358.390000",
          "155400.730000",
          "155403.070000",
          "155405.410000",
          "155407.750000",
          "155410.090000",
          "155412.430000",
          "155414.770000",
          "155417.110000",
          "155419.450000",
          "155421.790000",
          "155424.130000",
          "155426.470000",
          "155428.810000",
          "155431.150000",
          "155433.490000",
          "155435.830000",
          "155438.170000",
          "155440.510000",
          "155442.850000",
          "155445.190000",
          "155447.530000",
          "155449.870000",
          "155452.210000",
          "155454.550000",
          "155456.890000",
          "155459.230000",
          "155501.570000",
          "155503.910000",
          "155506.250000",
          "155508.590000",
          "155510.930000",
          "155513.270000",
          "155515.610000",
          "155517.950000",
          "155520.290000",
          "155522.630000",
          "155524.970000",
          "155527.310000",
          "155529.650000",
          "155531.990000",
          "155534.330000",
          "155536.670000",
          "155539.010000",
          "155541.350000",
          "155543.690000",
          "155546.030000",
          "155548.370000",
          "155550.710000",
          "155553.050000",
          "155555.390000",
          "155557.730000",
          "155600.070000",
          "155602.410000",
          "155604.750000",
          "155607.090000",
          "155609.430000",
          "155611.770000",
          "155614.110000",
          "155616.450000",
          "155618.790000",
          "155621.130000",
          "155623.470000",
          "155625.810000",
          "155628.150000",
          "155630.490000",
          "155632.830000",
          "155635.170000",
          "155637.510000",
          "155639.850000",
          "155642.190000",
          "155644.530000",
          "155646.870000",
          "155649.210000",
          "155651.550000",
          "155653.890000",
          "155656.230000",
          "155658.570000",
          "155700.910000",
          "155703.250000",
          "155705.590000",
          "155707.930000",
          "155710.270000",
          "155712.610000",
          "155714.950000",
          "155717.290000",
          "155719.630000",
          "155721.970000",
          "155724.310000",
          "155726.650000",
          "155728.990000",
          "155731.330000",
          "155733.670000",
          "155736.010000",
          "155738.350000",
          "155740.690000",
          "155743.030000",
          "155745.370000",
          "155747.710000"
        ],
        "ContentTime": [
          "155345.673000",
          "155345.677000",
          "155345.680000",
          "155345.683000",
          "155345.685000",
          "155345.688000",
          "155345.691000",
          "155345.694000",
          "155345.696000",
          "155345.699000",
          "155345.705000",
          "155345.708000",
          "155345.710000",
          "155345.713000",
          "155345.716000",
          "155345.719000",
          "155345.722000",
          "155345.725000",
          "155345.728000",
          "155345.731000",
          "155345.733000",
          "155345.737000",
          "155445.666000",
          "155445.669000",
          "155445.672000",
          "155445.675000",
          "155445.678000",
          "155445.681000",
          "155445.684000",
          "155445.687000",
          "155445.690000",
          "155445.692000",
          "155445.695000",
          "155445.698000",
          "155445.701000",
          "155445.704000",
          "155445.707000",
          "155445.709000",
          "155445.712000",
          "155445.715000",
          "155445.717000",
          "155445.720000",
          "155445.722000",
          "155445.725000",
          "155445.728000",
          "155445.731000",
          "155445.734000",
          "155545.666000",
          "155545.669000",
          "155545.672000",
          "155545.685000",
          "155545.688000",
          "155545.690000",
          "155545.693000",
          "155545.696000",
          "155545.698000",
          "155545.701000",
          "155545.703000",
          "155545.706000",
          "155545.709000",
          "155545.711000",
          "155545.720000",
          "155545.723000",
          "155545.726000",
          "155545.728000",
          "155545.731000",
          "155545.733000",
          "155545.736000",
          "155545.739000",
          "155545.741000",
          "155545.744000",
          "155545.747000",
          "155545.750000",
          "155645.667000",
          "155645.670000",
          "155645.673000",
          "155645.676000",
          "155645.679000",
          "155645.682000",
          "155645.685000",
          "155645.688000",
          "155645.690000",
          "155645.693000",
          "155645.696000",
          "155645.704000",
          "155645.706000",
          "155645.709000",
          "155645.712000",
          "155645.714000",
          "155645.717000",
          "155645.720000",
          "155645.722000",
          "155645.725000",
          "155645.727000",
          "155645.730000",
          "155645.733000",
          "155645.735000",
          "155645.738000",
          "155645.741000",
          "155745.665000",
          "155745.669000",
          "155745.671000",
          "155745.674000",
          "155745.677000",
          "155745.679000",
          "155745.682000",
          "155745.685000",
          "155745.687000",
          "155745.690000",
          "155745.693000",
          "155745.695000",
          "155745.698000",
          "155745.700000",
          "155745.703000",
          "155745.706000",
          "155745.709000",
          "155745.712000",
          "155745.715000",
          "155745.718000",
          "155745.720000",
          "155745.724000",
          "155745.726000",
          "155745.729000",
          "155745.731000",
          "155750.577000",
          "155750.580000"
        ],
        "InstanceCreationTime": [
          "155345.673000",
          "155345.677000",
          "155345.680000",
          "155345.683000",
          "155345.685000",
          "155345.688000",
          "155345.691000",
          "155345.694000",
          "155345.696000",
          "155345.699000",
          "155345.705000",
          "155345.708000",
          "155345.710000",
          "155345.713000",
          "155345.716000",
          "155345.719000",
          "155345.722000",
          "155345.725000",
          "155345.728000",
          "155345.731000",
          "155345.733000",
          "155345.737000",
          "155445.666000",
          "155445.669000",
          "155445.672000",
          "155445.675000",
          "155445.678000",
          "155445.681000",
          "155445.684000",
          "155445.687000",
          "155445.690000",
          "155445.692000",
          "155445.695000",
          "155445.698000",
          "155445.701000",
          "155445.704000",
          "155445.707000",
          "155445.709000",
          "155445.712000",
          "155445.715000",
          "155445.717000",
          "155445.720000",
          "155445.722000",
          "155445.725000",
          "155445.728000",
          "155445.731000",
          "155445.734000",
          "155545.666000",
          "155545.669000",
          "155545.672000",
          "155545.685000",
          "155545.688000",
          "155545.690000",
          "155545.693000",
          "155545.696000",
          "155545.698000",
          "155545.701000",
          "155545.703000",
          "155545.706000",
          "155545.709000",
          "155545.711000",
          "155545.720000",
          "155545.723000",
          "155545.726000",
          "155545.728000",
          "155545.731000",
          "155545.733000",
          "155545.736000",
          "155545.739000",
          "155545.741000",
          "155545.744000",
          "155545.747000",
          "155545.750000",
          "155645.667000",
          "155645.670000",
          "155645.673000",
          "155645.676000",
          "155645.679000",
          "155645.682000",
          "155645.685000",
          "155645.688000",
          "155645.690000",
          "155645.693000",
          "155645.696000",
          "155645.704000",
          "155645.706000",
          "155645.709000",
          "155645.712000",
          "155645.714000",
          "155645.717000",
          "155645.720000",
          "155645.722000",
          "155645.725000",
          "155645.727000",
          "155645.730000",
          "155645.733000",
          "155645.735000",
          "155645.738000",
          "155645.741000",
          "155745.665000",
          "155745.669000",
          "155745.671000",
          "155745.674000",
          "155745.677000",
          "155745.679000",
          "155745.682000",
          "155745.685000",
          "155745.687000",
          "155745.690000",
          "155745.693000",
          "155745.695000",
          "155745.698000",
          "155745.700000",
          "155745.703000",
          "155745.706000",
          "155745.709000",
          "155745.712000",
          "155745.715000",
          "155745.718000",
          "155745.720000",
          "155745.724000",
          "155745.726000",
          "155745.729000",
          "155745.731000",
          "155750.577000",
          "155750.580000"
        ],
        "InstanceNumber": [
          1,
          2,
          3,
          4,
          5,
          6,
          7,
          8,
          9,
          10,
          11,
          12,
          13,
          14,
          15,
          16,
          17,
          18,
          19,
          20,
          21,
          22,
          23,
          24,
          25,
          26,
          27,
          28,
          29,
          30,
          31,
          32,
          33,
          34,
          35,
          36,
          37,
          38,
          39,
          40,
          41,
          42,
          43,
          44,
          45,
          46,
          47,
          48,
          49,
          50,
          51,
          52,
          53,
          54,
          55,
          56,
          57,
          58,
          59,
          60,
          61,
          62,
          63,
          64,
          65,
          66,
          67,
          68,
          69,
          70,
          71,
          72,
          73,
          74,
          75,
          76,
          77,
          78,
          79,
          80,
          81,
          82,
          83,
          84,
          85,
          86,
          87,
          88,
          89,
          90,
          91,
          92,
          93,
          94,
          95,
          96,
          97,
          98,
          99,
          100,
          101,
          102,
          103,
          104,
          105,
          106,
          107,
          108,
          109,
          110,
          111,
          112,
          113,
          114,
          115,
          116,
          117,
          118,
          119,
          120,
          121,
          122,
          123,
          124,
          125,
          126
        ],
        "LargestImagePixelValue": [
          2354,
          2277,
          2160,
          2116,
          2064,
          2034,
          2163,
          2008,
          2100,
          2059,
          2050,
          2216,
          2182,
          2086,
          2056,
          1870,
          2078,
          2192,
          2128,
          2015,
          1870,
          2131,
          2376,
          2979,
          2006,
          2050,
          1817,
          2221,
          2388,
          2272,
          2123,
          2031,
          1893,
          2142,
          2180,
          1992,
          1948,
          1930,
          2120,
          1906,
          2060,
          2191,
          1898,
          1965,
          2137,
          2776,
          2249,
          2229,
          2063,
          2073,
          2007,
          1839,
          1935,
          2160,
          2303,
          2250,
          2116,
          2021,
          2121,
          2084,
          2042,
          2239,
          2202,
          2460,
          2284,
          2084,
          2204,
          2268,
          2289,
          2200,
          2119,
          1930,
          2148,
          1988,
          2131,
          2129,
          1926,
          1963,
          2073,
          1991,
          2083,
          2267,
          2099,
          2223,
          2237,
          2346,
          2527,
          2182,
          2029,
          2611,
          2307,
          2455,
          1943,
          1945,
          2109,
          2522,
          2154,
          2235,
          2006,
          1993,
          1848,
          2015,
          2059,
          2462,
          2009,
          2349,
          2136,
          2175,
          2059,
          1831,
          2163,
          2057,
          2232,
          2199,
          2193,
          2148,
          2158,
          2545,
          2639,
          2150,
          1953,
          2035,
          1932,
          2330,
          2088,
          1955
        ],
        "WindowCenter": [
          819.0,
          817.0,
          816.0,
          814.0,
          816.0,
          815.0,
          815.0,
          813.0,
          812.0,
          814.0,
          816.0,
          813.0,
          815.0,
          814.0,
          814.0,
          816.0,
          817.0,
          816.0,
          816.0,
          816.0,
          816.0,
          818.0,
          816.0,
          808.0,
          811.0,
          824.0,
          814.0,
          819.0,
          811.0,
          811.0,
          810.0,
          818.0,
          817.0,
          820.0,
          817.0,
          818.0,
          815.0,
          816.0,
          819.0,
          819.0,
          819.0,
          819.0,
          816.0,
          821.0,
          823.0,
          822.0,
          819.0,
          815.0,
          816.0,
          818.0,
          817.0,
          818.0,
          819.0,
          819.0,
          819.0,
          820.0,
          820.0,
          820.0,
          822.0,
          821.0,
          818.0,
          820.0,
          822.0,
          822.0,
          819.0,
          820.0,
          816.0,
          820.0,
          816.0,
          819.0,
          815.0,
          817.0,
          819.0,
          820.0,
          820.0,
          821.0,
          819.0,
          819.0,
          815.0,
          820.0,
          820.0,
          823.0,
          822.0,
          822.0,
          821.0,
          823.0,
          820.0,
          816.0,
          817.0,
          819.0,
          814.0,
          815.0,
          813.0,
          815.0,
          813.0,
          815.0,
          813.0,
          816.0,
          819.0,
          819.0,
          818.0,
          823.0,
          823.0,
          824.0,
          822.0,
          819.0,
          817.0,
          822.0,
          820.0,
          821.0,
          823.0,
          819.0,
          820.0,
          823.0,
          822.0,
          824.0,
          824.0,
          824.0,
          822.0,
          820.0,
          819.0,
          821.0,
          824.0,
          825.0,
          820.0,
          820.0
        ],
        "WindowWidth": [
          1723.0,
          1716.0,
          1714.0,
          1709.0,
          1713.0,
          1711.0,
          1713.0,
          1707.0,
          1704.0,
          1710.0,
          1713.0,
          1705.0,
          1711.0,
          1710.0,
          1709.0,
          1713.0,
          1715.0,
          1713.0,
          1713.0,
          1715.0,
          1712.0,
          1720.0,
          1715.0,
          1708.0,
          1706.0,
          1728.0,
          1708.0,
          1722.0,
          1703.0,
          1702.0,
          1700.0,
          1720.0,
          1718.0,
          1722.0,
          1715.0,
          1717.0,
          1712.0,
          1714.0,
          1721.0,
          1721.0,
          1722.0,
          1721.0,
          1714.0,
          1728.0,
          1730.0,
          1729.0,
          1720.0,
          1711.0,
          1715.0,
          1717.0,
          1716.0,
          1718.0,
          1723.0,
          1720.0,
          1722.0,
          1724.0,
          1723.0,
          1724.0,
          1729.0,
          1726.0,
          1718.0,
          1725.0,
          1727.0,
          1727.0,
          1721.0,
          1724.0,
          1716.0,
          1723.0,
          1714.0,
          1722.0,
          1711.0,
          1716.0,
          1721.0,
          1724.0,
          1723.0,
          1726.0,
          1721.0,
          1721.0,
          1711.0,
          1724.0,
          1725.0,
          1730.0,
          1727.0,
          1730.0,
          1728.0,
          1732.0,
          1724.0,
          1713.0,
          1718.0,
          1723.0,
          1711.0,
          1711.0,
          1707.0,
          1711.0,
          1707.0,
          1712.0,
          1707.0,
          1715.0,
          1720.0,
          1722.0,
          1720.0,
          1734.0,
          1732.0,
          1734.0,
          1728.0,
          1721.0,
          1719.0,
          1729.0,
          1724.0,
          1726.0,
          1730.0,
          1722.0,
          1725.0,
          1732.0,
          1730.0,
          1734.0,
          1732.0,
          1733.0,
          1729.0,
          1726.0,
          1721.0,
          1728.0,
          1733.0,
          1739.0,
          1726.0,
          1724.0
        ]
      },
      "slices": {}
    }
  },
  "dummy_trs": 0,
  "dvars_nstd": 46.962810654160016,
  "dvars_std": 1.3709683708800005,
  "dvars_vstd": 1.1109461574400004,
  "efc": 0.5948440404424823,
  "fber": 1445.6009521484375,
  "fd_mean": 0.7614243120303565,
  "fd_num": 115,
  "fd_perc": 91.26984126984127,
  "fwhm_avg": 1.7581401088722803,
  "fwhm_x": 1.63584,
  "fwhm_y": 2.00625,
  "fwhm_z": 1.632330326616841,
  "gcor": 0.0550925,
  "gsr_x": -0.012867175973951817,
  "gsr_y": 0.05094665288925171,
  "provenance": {
    "md5sum": "24234bda59c37509163c7e975ed6d095",
    "settings": {
      "fd_thres": 0.2,
      "testing": false
    },
    "software": "mriqc",
    "version": "22.0.1",
    "webapi_port": null,
    "webapi_url": "https://mriqc.nimh.nih.gov/api/v1"
  },
  "size_t": 126,
  "size_x": 64,
  "size_y": 64,
  "size_z": 34,
  "snr": 6.9834513809852385,
  "spacing_tr": 2.3399999141693115,
  "spacing_x": 3.0,
  "spacing_y": 3.0,
  "spacing_z": 3.299999952316284,
  "summary_bg_k": 37.366812079767556,
  "summary_bg_mad": 8.542614129408141,
  "summary_bg_mean": 35.66733169555664,
  "summary_bg_median": 23.563493728637695,
  "summary_bg_n": 68224.0,
  "summary_bg_p05": 13.626984596252441,
  "summary_bg_p95": 99.7345275878906,
  "summary_bg_stdv": 41.97539520263672,
  "summary_fg_k": 2.632271742813667,
  "summary_fg_mad": 121.29095994944447,
  "summary_fg_mean": 921.7564697265625,
  "summary_fg_median": 921.0476684570312,
  "summary_fg_n": 37407.0,
  "summary_fg_p05": 716.2643432617188,
  "summary_fg_p95": 1117.9262084960938,
  "summary_fg_stdv": 131.88827514648438,
  "tsnr": 41.11222269479185
}