{
  "aor": 0.003913145161290323,
  "aqi": 0.015553477741935483,
  "bids_meta": {
    "AcquisitionMatrixPE": 64,
    "AcquisitionNumber": 1,
    "AcquisitionTime": "12:00:39.030000",
    "BandwidthPerPixelPhaseEncode": 24.038,
    "BaseResolution": 64,
    "BodyPartExamined": "HEAD",
    "ConsistencyInfo": "N4_VD13A_LATEST_20120616",
    "ConversionSoftware": "dcm2niix",
    "ConversionSoftwareVersion": "v1.0.20181125  GCC6.3.0",
    "DerivedVendorReportedEchoSpacing": 0.000650012,
    "DeviceSerialNumber": "45250",
    "DwellTime": 4.6e-06,
    "EchoTime": 0.033,
    "EchoTrainLength": 64,
    "EffectiveEchoSpacing": 0.000650012,
    "FlipAngle": 90,
    "ImageOrientationPatientDICOM": [
      0.999316,
      0.0315316,
      -0.0193072,
      -0.0348969,
      0.97691,
      -0.210781
    ],
    "ImageType": [
      "ORIGINAL",
      "PRIMARY",
      "M",
      "ND",
      "NORM",
      "MOSAIC"
    ],
    "ImagingFrequency": 123.22,
    "InPlanePhaseEncodingDirectionDICOM": "COL",
    "InstitutionAddress": "Kopernikusstr._26_Graz_Graz_AT_8010",
    "InstitutionName": "KFU",
    "InstitutionalDepartmentName": "Department",
    "MRAcquisitionType": "2D",
    "MagneticFieldStrength": 3,
    "Manufacturer": "Siemens",
    "ManufacturersModelName": "Skyra",
    "Modality": "MR",
    "PartialFourier": 1,
    "PatientPosition": "HFS",
    "PercentPhaseFOV": 100,
    "PhaseEncodingDirection": "j-",
    "PhaseEncodingSteps": 64,
    "PhaseResolution": 1,
    "PixelBandwidth": 1700,
    "ProcedureStepDescription": "KFU_Entw-Psy",
    "ProtocolName": "fMRI_3",
    "PulseSequenceDetails": "%SiemensSeq%_ep2d_pace",
    "ReceiveCoilActiveElements": "HE1-4",
    "ReceiveCoilName": "HeadNeck_20",
    "ReconMatrixPE": 64,
    "RepetitionTime": 2.34,
    "SAR": 0.185904,
    "ScanOptions": "FS",
    "ScanningSequence": "EP",
    "SequenceName": "_epfid2d1_64",
    "SequenceVariant": "SK",
    "SeriesDescription": "fMRI_3",
    "SeriesNumber": 8,
    "ShimSetting": [
      -1619,
      -3647,
      -4328,
      352,
      324,
      166,
      157,
      -254
    ],
    "SliceThickness": 3,
    "SliceTiming": [
      2.2525,
      2.185,
      2.115,
      2.0475,
      1.98,
      1.91,
      1.8425,
      1.775,
      1.705,
      1.6375,
      1.57,
      1.5025,
      1.4325,
      1.365,
      1.2975,
      1.2275,
      1.16,
      1.0925,
      1.025,
      0.955,
      0.8875,
      0.82,
      0.75,
      0.6825,
      0.615,
      0.5475,
      0.4775,
      0.41,
      0.3425,
      0.2725,
      0.205,
      0.1375,
      0.0675,
      0
    ],
    "SoftwareVersions": "syngo_MR_D13",
    "SpacingBetweenSlices": 3.3,
    "StationName": "FBMTMR1",
    "TaskName": "read",
    "TotalReadoutTime": 0.0409508,
    "TxRefAmp": 336.847,
    "dataset": "ds003126",
    "dcmmeta_affine": [
      [
        -2.9979488849639893,
        -0.10469081997871399,
        -0.04030997306108475,
        96.09979248046875
      ],
      [
        -0.09459465742111206,
        2.9307308197021484,
        -0.6973240375518799,
        -107.80829620361328
      ],
      [
        -0.05792154744267464,
        0.6323419809341431,
        3.2252309322357178,
        -32.745574951171875
      ],
      [
        0.0,
        0.0,
        0.0,
        1.0
      ]
    ],
    "dcmmeta_reorient_transform": [
      [
        0.0,
        -1.0,
        0.0,
        63.0
      ],
      [
        1.0,
        0.0,
        0.0,
        0.0
      ],
      [
        0.0,
        0.0,
        1.0,
        0.0
      ],
      [
        0.0,
        0.0,
        0.0,
        1.0
      ]
    ],
    "dcmmeta_shape": [
      64,
      64,
      34,
      124
    ],
    "dcmmeta_slice_dim": 2,
    "dcmmeta_version": 0.6,
    "global": {
      "const": {
        "AcquisitionMatrix": [
          64,
          0,
          0,
          64
        ],
        "AngioFlag": "N",
        "BitsAllocated": 16,
        "BitsStored": 12,
        "BodyPartExamined": "HEAD",
        "Columns": 384,
        "EchoNumbers": 1,
        "EchoTime": 33.0,
        "EchoTrainLength": 64,
        "FlipAngle": 90.0,
        "HighBit": 11,
        "ImageOrientationPatient": [
          0.99931626318939,
          0.03153155301259,
          -0.0193071823374,
          -0.0348969396424,
          0.97691029029503,
          -0.2107806640071
        ],
        "ImagePositionPatient": [
          -552.42554689026,
          -560.87983382222,
          117.53413571879
        ],
        "ImageType": [
          "ORIGINAL",
          "PRIMARY",
          "M",
          "ND",
          "NORM",
          "MOSAIC"
        ],
        "ImagedNucleus": "1H",
        "ImagingFrequency": 123.22016,
        "InPlanePhaseEncodingDirection": "COL",
        "MRAcquisitionType": "2D",
        "MagneticFieldStrength": 3.0,
        "Manufacturer": "SIEMENS",
        "ManufacturerModelName": "Skyra",
        "Modality": "MR",
        "NumberOfAverages": 1.0,
        "NumberOfPhaseEncodingSteps": 64,
        "PercentPhaseFieldOfView": 100.0,
        "PercentSampling": 100.0,
        "PerformedProcedureStepStartTime": "113531.811000",
        "PhotometricInterpretation": "MONOCHROME2",
        "PixelBandwidth": 1700.0,
        "PixelRepresentation": 0,
        "PixelSpacing": [
          3.0,
          3.0
        ],
        "ProtocolName": "fMRI_3",
        "RepetitionTime": 2340.0,
        "Rows": 384,
        "SAR": 0.18590419281515,
        "SamplesPerPixel": 1,
        "ScanOptions": "FS",
        "ScanningSequence": "EP",
        "SequenceName": "*epfid2d1_64",
        "SequenceVariant": "SK",
        "SeriesDescription": "fMRI_3",
        "SeriesNumber": 8,
        "SeriesTime": "120043.599000",
        "SliceLocation": -10.396518193983,
        "SliceThickness": 3.0,
        "SmallestImagePixelValue": 0,
        "SoftwareVersions": "syngo MR D13",
        "SpacingBetweenSlices": 3.3000000284563,
        "SpecificCharacterSet": "ISO_IR 100",
        "StudyID": "1",
        "StudyTime": "113531.713000",
        "TransmitCoilName": "Body",
        "VariableFlipAngleFlag": "N",
        "WindowCenterWidthExplanation": "Algo1",
        "dBdt": 0.0
      },
      "slices": {}
    },
    "modality": "bold",
    "run_id": 3,
    "session_id": "2",
    "subject_id": "047EPKL014052",
    "task_id": "read",
    "time": {
      "samples": {
        "AcquisitionNumber": [
          1,
          2,
          3,
          4,
          5,
          6,
          7,
          8,
          9,
          10,
          11,
          12,
          13,
          14,
          15,
          16,
          17,
          18,
          19,
          20,
          21,
          22,
          23,
          24,
          25,
          26,
          27,
          28,
          29,
          30,
          31,
          32,
          33,
          34,
          35,
          36,
          37,
          38,
          39,
          40,
          41,
          42,
          43,
          44,
          45,
          46,
          47,
          48,
          49,
          50,
          51,
          52,
          53,
          54,
          55,
          56,
          57,
          58,
          59,
          60,
          61,
          62,
          63,
          64,
          65,
          66,
          67,
          68,
          69,
          70,
          71,
          72,
          73,
          74,
          75,
          76,
          77,
          78,
          79,
          80,
          81,
          82,
          83,
          84,
          85,
          86,
          87,
          88,
          89,
          90,
          91,
          92,
          93,
          94,
          95,
          96,
          97,
          98,
          99,
          100,
          101,
          102,
          103,
          104,
          105,
          106,
          107,
          108,
          109,
          110,
          111,
          112,
          113,
          114,
          115,
          116,
          117,
          118,
          119,
          120,
          121,
          122,
          123,
          124
        ],
        "AcquisitionTime": [
          "120039.030000",
          "120041.370000",
          "120043.710000",
          "120046.050000",
          "120048.390000",
          "120050.730000",
          "120053.070000",
          "120055.410000",
          "120057.750000",
          "120100.090000",
          "120102.430000",
          "120104.770000",
          "120107.110000",
          "120109.450000",
          "120111.790000",
          "120114.130000",
          "120116.470000",
          "120118.810000",
          "120121.150000",
          "120123.490000",
          "120125.830000",
          "120128.170000",
          "120130.510000",
          "120132.850000",
          "120135.190000",
          "120137.530000",
          "120139.870000",
          "120142.210000",
          "120144.550000",
          "120146.890000",
          "120149.230000",
          "120151.570000",
          "120153.910000",
          "120156.250000",
          "120158.590000",
          "120200.930000",
          "120203.270000",
          "120205.610000",
          "120207.950000",
          "120210.290000",
          "120212.630000",
          "120214.970000",
          "120217.310000",
          "120219.650000",
          "120221.990000",
          "120224.330000",
          "120226.670000",
          "120229.010000",
          "120231.350000",
          "120233.690000",
          "120236.030000",
          "120238.370000",
          "120240.710000",
          "120243.050000",
          "120245.390000",
          "120247.730000",
          "120250.070000",
          "120252.410000",
          "120254.750000",
          "120257.090000",
          "120259.430000",
          "120301.770000",
          "120304.110000",
          "120306.450000",
          "120308.790000",
          "120311.130000",
          "120313.470000",
          "120315.810000",
          "120318.150000",
          "120320.490000",
          "120322.830000",
          "120325.170000",
          "120327.510000",
          "120329.850000",
          "120332.190000",
          "120334.530000",
          "120336.870000",
          "120339.210000",
          "120341.550000",
          "120343.890000",
          "120346.230000",
          "120348.570000",
          "120350.910000",
          "120353.250000",
          "120355.590000",
          "120357.930000",
          "120400.270000",
          "120402.610000",
          "120404.950000",
          "120407.290000",
          "120409.630000",
          "120411.970000",
          "120414.310000",
          "120416.650000",
          "120418.990000",
          "120421.330000",
          "120423.670000",
          "120426.010000",
          "120428.350000",
          "120430.690000",
          "120433.030000",
          "120435.370000",
          "120437.710000",
          "120440.050000",
          "120442.390000",
          "120444.730000",
          "120447.070000",
          "120449.410000",
          "120451.750000",
          "120454.090000",
          "120456.430000",
          "120458.770000",
          "120501.110000",
          "120503.450000",
          "120505.790000",
          "120508.130000",
          "120510.470000",
          "120512.810000",
          "120515.150000",
          "120517.490000",
          "120519.830000",
          "120522.170000",
          "120524.510000",
          "120526.850000"
        ],
        "ContentTime": [
          "120043.603000",
          "120043.608000",
          "120143.594000",
          "120143.602000",
          "120143.604000",
          "120143.607000",
          "120143.610000",
          "120143.617000",
          "120143.619000",
          "120143.622000",
          "120143.625000",
          "120143.627000",
          "120143.630000",
          "120143.633000",
          "120143.636000",
          "120143.638000",
          "120143.641000",
          "120143.644000",
          "120143.647000",
          "120143.650000",
          "120143.652000",
          "120143.655000",
          "120143.658000",
          "120143.663000",
          "120143.666000",
          "120143.669000",
          "120143.672000",
          "120143.674000",
          "120243.596000",
          "120243.599000",
          "120243.609000",
          "120243.612000",
          "120243.614000",
          "120243.620000",
          "120243.623000",
          "120243.626000",
          "120243.629000",
          "120243.631000",
          "120243.634000",
          "120243.637000",
          "120243.640000",
          "120243.643000",
          "120243.646000",
          "120243.649000",
          "120243.652000",
          "120243.655000",
          "120243.658000",
          "120243.661000",
          "120243.663000",
          "120243.666000",
          "120243.669000",
          "120243.672000",
          "120243.674000",
          "120343.595000",
          "120343.598000",
          "120343.606000",
          "120343.609000",
          "120343.612000",
          "120343.615000",
          "120343.618000",
          "120343.620000",
          "120343.623000",
          "120343.626000",
          "120343.629000",
          "120343.632000",
          "120343.634000",
          "120343.637000",
          "120343.640000",
          "120343.642000",
          "120343.645000",
          "120343.648000",
          "120343.651000",
          "120343.654000",
          "120343.657000",
          "120343.659000",
          "120343.662000",
          "120343.665000",
          "120343.667000",
          "120343.670000",
          "120443.595000",
          "120443.598000",
          "120443.601000",
          "120443.604000",
          "120443.607000",
          "120443.610000",
          "120443.617000",
          "120443.620000",
          "120443.623000",
          "120443.626000",
          "120443.629000",
          "120443.632000",
          "120443.634000",
          "120443.637000",
          "120443.640000",
          "120443.643000",
          "120443.645000",
          "120443.649000",
          "120443.652000",
          "120443.654000",
          "120443.657000",
          "120443.660000",
          "120443.662000",
          "120443.665000",
          "120443.668000",
          "120443.671000",
          "120528.503000",
          "120528.506000",
          "120528.509000",
          "120528.512000",
          "120528.521000",
          "120528.538000",
          "120528.540000",
          "120528.543000",
          "120528.546000",
          "120528.549000",
          "120528.552000",
          "120528.555000",
          "120528.558000",
          "120528.560000",
          "120528.563000",
          "120528.566000",
          "120528.569000",
          "120528.572000",
          "120528.574000"
        ],
        "InstanceCreationTime": [
          "120043.603000",
          "120043.608000",
          "120143.594000",
          "120143.602000",
          "120143.604000",
          "120143.607000",
          "120143.610000",
          "120143.617000",
          "120143.619000",
          "120143.622000",
          "120143.625000",
          "120143.627000",
          "120143.630000",
          "120143.633000",
          "120143.636000",
          "120143.638000",
          "120143.641000",
          "120143.644000",
          "120143.647000",
          "120143.650000",
          "120143.652000",
          "120143.655000",
          "120143.658000",
          "120143.663000",
          "120143.666000",
          "120143.669000",
          "120143.672000",
          "120143.674000",
          "120243.596000",
          "120243.599000",
          "120243.609000",
          "120243.612000",
          "120243.614000",
          "120243.620000",
          "120243.623000",
          "120243.626000",
          "120243.629000",
          "120243.631000",
          "120243.634000",
          "120243.637000",
          "120243.640000",
          "120243.643000",
          "120243.646000",
          "120243.649000",
          "120243.652000",
          "120243.655000",
          "120243.658000",
          "120243.661000",
          "120243.663000",
          "120243.666000",
          "120243.669000",
          "120243.672000",
          "120243.674000",
          "120343.595000",
          "120343.598000",
          "120343.606000",
          "120343.609000",
          "120343.612000",
          "120343.615000",
          "120343.618000",
          "120343.620000",
          "120343.623000",
          "120343.626000",
          "120343.629000",
          "120343.632000",
          "120343.634000",
          "120343.637000",
          "120343.640000",
          "120343.642000",
          "120343.645000",
          "120343.648000",
          "120343.651000",
          "120343.654000",
          "120343.657000",
          "120343.659000",
          "120343.662000",
          "120343.665000",
          "120343.667000",
          "120343.670000",
          "120443.595000",
          "120443.598000",
          "120443.601000",
          "120443.604000",
          "120443.607000",
          "120443.610000",
          "120443.617000",
          "120443.620000",
          "120443.623000",
          "120443.626000",
          "120443.629000",
          "120443.632000",
          "120443.634000",
          "120443.637000",
          "120443.640000",
          "120443.643000",
          "120443.645000",
          "120443.649000",
          "120443.652000",
          "120443.654000",
          "120443.657000",
          "120443.660000",
          "120443.662000",
          "120443.665000",
          "120443.668000",
          "120443.671000",
          "120528.503000",
          "120528.506000",
          "120528.509000",
          "120528.512000",
          "120528.521000",
          "120528.538000",
          "120528.540000",
          "120528.543000",
          "120528.546000",
          "120528.549000",
          "120528.552000",
          "120528.555000",
          "120528.558000",
          "120528.560000",
          "120528.563000",
          "120528.566000",
          "120528.569000",
          "120528.572000",
          "120528.574000"
        ],
        "InstanceNumber": [
          1,
          2,
          3,
          4,
          5,
          6,
          7,
          8,
          9,
          10,
          11,
          12,
          13,
          14,
          15,
          16,
          17,
          18,
          19,
          20,
          21,
          22,
          23,
          24,
          25,
          26,
          27,
          28,
          29,
          30,
          31,
          32,
          33,
          34,
          35,
          36,
          37,
          38,
          39,
          40,
          41,
          42,
          43,
          44,
          45,
          46,
          47,
          48,
          49,
          50,
          51,
          52,
          53,
          54,
          55,
          56,
          57,
          58,
          59,
          60,
          61,
          62,
          63,
          64,
          65,
          66,
          67,
          68,
          69,
          70,
          71,
          72,
          73,
          74,
          75,
          76,
          77,
          78,
          79,
          80,
          81,
          82,
          83,
          84,
          85,
          86,
          87,
          88,
          89,
          90,
          91,
          92,
          93,
          94,
          95,
          96,
          97,
          98,
          99,
          100,
          101,
          102,
          103,
          104,
          105,
          106,
          107,
          108,
          109,
          110,
          111,
          112,
          113,
          114,
          115,
          116,
          117,
          118,
          119,
          120,
          121,
          122,
          123,
          124
        ],
        "LargestImagePixelValue": [
          3207,
          2766,
          2504,
          2368,
          2643,
          1854,
          2706,
          1722,
          1953,
          2174,
          1835,
          2059,
          2035,
          2042,
          1848,
          2733,
          2085,
          1978,
          2212,
          2165,
          1977,
          2677,
          1696,
          2262,
          2912,
          1897,
          1868,
          2062,
          2275,
          1830,
          2261,
          2491,
          1773,
          1791,
          2244,
          3002,
          2160,
          1777,
          1940,
          2239,
          2205,
          1832,
          2150,
          2496,
          1713,
          2190,
          2284,
          2010,
          2347,
          2903,
          2190,
          1720,
          2625,
          2400,
          1790,
          3044,
          2205,
          1831,
          2460,
          2134,
          2113,
          2114,
          3023,
          1734,
          2030,
          2101,
          2029,
          2002,
          2069,
          2050,
          2061,
          2538,
          1892,
          2242,
          1769,
          2493,
          2303,
          1940,
          2301,
          2232,
          1950,
          2030,
          2468,
          2256,
          2071,
          1668,
          2281,
          2068,
          2172,
          1934,
          2319,
          2088,
          2208,
          2005,
          1995,
          1976,
          3228,
          1927,
          2027,
          3105,
          2091,
          1883,
          2433,
          1942,
          2053,
          2381,
          1803,
          2081,
          2375,
          2124,
          2128,
          3155,
          1810,
          1880,
          2172,
          2778,
          1976,
          1965,
          2131,
          2090,
          2128,
          2056,
          1926,
          2130
        ],
        "WindowCenter": [
          777.0,
          772.0,
          769.0,
          769.0,
          773.0,
          770.0,
          772.0,
          776.0,
          775.0,
          776.0,
          774.0,
          776.0,
          776.0,
          776.0,
          776.0,
          777.0,
          774.0,
          775.0,
          777.0,
          776.0,
          776.0,
          777.0,
          774.0,
          779.0,
          777.0,
          775.0,
          774.0,
          779.0,
          776.0,
          775.0,
          777.0,
          778.0,
          774.0,
          781.0,
          778.0,
          777.0,
          774.0,
          776.0,
          776.0,
          778.0,
          778.0,
          778.0,
          778.0,
          778.0,
          772.0,
          782.0,
          778.0,
          775.0,
          779.0,
          781.0,
          777.0,
          774.0,
          780.0,
          780.0,
          777.0,
          779.0,
          777.0,
          780.0,
          780.0,
          779.0,
          778.0,
          777.0,
          779.0,
          777.0,
          778.0,
          779.0,
          779.0,
          778.0,
          778.0,
          780.0,
          779.0,
          779.0,
          777.0,
          780.0,
          779.0,
          782.0,
          779.0,
          780.0,
          780.0,
          778.0,
          778.0,
          779.0,
          780.0,
          779.0,
          776.0,
          780.0,
          780.0,
          780.0,
          779.0,
          782.0,
          781.0,
          778.0,
          778.0,
          780.0,
          780.0,
          781.0,
          782.0,
          780.0,
          780.0,
          781.0,
          779.0,
          779.0,
          780.0,
          779.0,
          781.0,
          783.0,
          780.0,
          780.0,
          780.0,
          781.0,
          780.0,
          781.0,
          780.0,
          781.0,
          780.0,
          780.0,
          779.0,
          782.0,
          783.0,
          782.0,
          780.0,
          780.0,
          780.0,
          783.0
        ],
        "WindowWidth": [
          1664.0,
          1648.0,
          1639.0,
          1640.0,
          1650.0,
          1642.0,
          1650.0,
          1659.0,
          1657.0,
          1660.0,
          1655.0,
          1660.0,
          1660.0,
          1660.0,
          1659.0,
          1663.0,
          1653.0,
          1657.0,
          1661.0,
          1658.0,
          1659.0,
          1662.0,
          1654.0,
          1667.0,
          1664.0,
          1655.0,
          1652.0,
          1669.0,
          1661.0,
          1655.0,
          1662.0,
          1665.0,
          1653.0,
          1674.0,
          1667.0,
          1663.0,
          1655.0,
          1657.0,
          1658.0,
          1667.0,
          1664.0,
          1665.0,
          1664.0,
          1664.0,
          1648.0,
          1675.0,
          1668.0,
          1655.0,
          1668.0,
          1673.0,
          1663.0,
          1654.0,
          1671.0,
          1670.0,
          1662.0,
          1671.0,
          1660.0,
          1670.0,
          1673.0,
          1667.0,
          1664.0,
          1663.0,
          1671.0,
          1661.0,
          1665.0,
          1670.0,
          1667.0,
          1666.0,
          1666.0,
          1668.0,
          1667.0,
          1667.0,
          1663.0,
          1670.0,
          1667.0,
          1676.0,
          1666.0,
          1671.0,
          1672.0,
          1665.0,
          1665.0,
          1667.0,
          1669.0,
          1667.0,
          1660.0,
          1668.0,
          1671.0,
          1670.0,
          1667.0,
          1677.0,
          1672.0,
          1664.0,
          1667.0,
          1672.0,
          1670.0,
          1672.0,
          1677.0,
          1668.0,
          1669.0,
          1674.0,
          1667.0,
          1666.0,
          1672.0,
          1666.0,
          1671.0,
          1678.0,
          1667.0,
          1670.0,
          1673.0,
          1672.0,
          1670.0,
          1676.0,
          1669.0,
          1672.0,
          1672.0,
          1672.0,
          1666.0,
          1676.0,
          1677.0,
          1674.0,
          1672.0,
          1670.0,
          1673.0,
          1680.0
        ]
      },
      "slices": {}
    }
  },
  "dummy_trs": 0,
  "dvars_nstd": 43.462184254796746,
  "dvars_std": 1.315839261463414,
  "dvars_vstd": 1.0193398841463415,
  "efc": 0.551272637408522,
  "fber": 1626.334228515625,
  "fd_mean": 0.5156528111429001,
  "fd_num": 108,
  "fd_perc": 87.09677419354838,
  "fwhm_avg": 1.600313477754798,
  "fwhm_x": 1.5261266666666666,
  "fwhm_y": 1.7726499999999998,
  "fwhm_z": 1.5021637665977274,
  "gcor": 0.0870721,
  "gsr_x": -0.009345986880362034,
  "gsr_y": 0.03627581521868706,
  "provenance": {
    "md5sum": "23dc9b0d33d389082e346489e8bee071",
    "settings": {
      "fd_thres": 0.2,
      "testing": false
    },
    "software": "mriqc",
    "version": "22.0.1",
    "webapi_port": null,
    "webapi_url": "https://mriqc.nimh.nih.gov/api/v1"
  },
  "size_t": 124,
  "size_x": 64,
  "size_y": 64,
  "size_z": 34,
  "snr": 7.171521474326425,
  "spacing_tr": 2.3399999141693115,
  "spacing_x": 3.0,
  "spacing_y": 3.0,
  "spacing_z": 3.299999713897705,
  "summary_bg_k": 51.64091780785505,
  "summary_bg_mad": 9.935826933263645,
  "summary_bg_mean": 36.39776611328125,
  "summary_bg_median": 22.25806427001953,
  "summary_bg_n": 76248.0,
  "summary_bg_p05": 12.588708877563477,
  "summary_bg_p95": 97.5,
  "summary_bg_stdv": 53.14704132080078,
  "summary_fg_k": 2.0688514111464196,
  "summary_fg_mad": 128.22120231420593,
  "summary_fg_mean": 918.48291015625,
  "summary_fg_median": 917.8951416015625,
  "summary_fg_n": 30661.0,
  "summary_fg_p05": 728.540283203125,
  "summary_fg_p95": 1111.556396484375,
  "summary_fg_stdv": 127.9896011352539,
  "tsnr": 50.59866928495467
}