{
  "aor": 0.012688604651162791,
  "aqi": 0.018182466279069765,
  "bids_meta": {
    "AcquisitionMatrixPE": 64,
    "AcquisitionNumber": 1,
    "AcquisitionTime": "11:59:36.755000",
    "BandwidthPerPixelPhaseEncode": 24.038,
    "BaseResolution": 64,
    "BodyPartExamined": "HEAD",
    "ConsistencyInfo": "N4_VD13A_LATEST_20120616",
    "ConversionSoftware": "dcm2niix",
    "ConversionSoftwareVersion": "v1.0.20181125  GCC6.3.0",
    "DerivedVendorReportedEchoSpacing": 0.000650012,
    "DeviceSerialNumber": "45250",
    "DwellTime": 4.6e-06,
    "EchoTime": 0.033,
    "EchoTrainLength": 64,
    "EffectiveEchoSpacing": 0.000650012,
    "FlipAngle": 90,
    "ImageOrientationPatientDICOM": [
      0.995007,
      0.0706071,
      -0.070542,
      -0.092304,
      0.919844,
      -0.381271
    ],
    "ImageType": [
      "ORIGINAL",
      "PRIMARY",
      "M",
      "ND",
      "NORM",
      "MOSAIC"
    ],
    "ImagingFrequency": 123.214,
    "InPlanePhaseEncodingDirectionDICOM": "COL",
    "InstitutionAddress": "Kopernikusstr._26_Graz_Graz_AT_8010",
    "InstitutionName": "KFU",
    "InstitutionalDepartmentName": "Department",
    "MRAcquisitionType": "2D",
    "MagneticFieldStrength": 3,
    "Manufacturer": "Siemens",
    "ManufacturersModelName": "Skyra",
    "Modality": "MR",
    "PartialFourier": 1,
    "PatientPosition": "HFS",
    "PercentPhaseFOV": 100,
    "PhaseEncodingDirection": "j-",
    "PhaseEncodingSteps": 64,
    "PhaseResolution": 1,
    "PixelBandwidth": 1700,
    "ProcedureStepDescription": "KFU_Entw-Psy",
    "ProtocolName": "fMRI_1",
    "PulseSequenceDetails": "%SiemensSeq%_ep2d_pace",
    "ReceiveCoilActiveElements": "HE1-4",
    "ReceiveCoilName": "HeadNeck_20",
    "ReconMatrixPE": 64,
    "RepetitionTime": 2.34,
    "SAR": 0.169118,
    "ScanOptions": "FS",
    "ScanningSequence": "EP",
    "SequenceName": "_epfid2d1_64",
    "SequenceVariant": "SK",
    "SeriesDescription": "fMRI_1",
    "SeriesNumber": 2,
    "ShimSetting": [
      -1564,
      -3576,
      -4421,
      390,
      554,
      -89,
      -66,
      -282
    ],
    "SliceThickness": 3,
    "SliceTiming": [
      2.25,
      2.1825,
      2.115,
      2.0475,
      1.9775,
      1.91,
      1.8425,
      1.7725,
      1.705,
      1.6375,
      1.5675,
      1.5,
      1.4325,
      1.365,
      1.295,
      1.2275,
      1.16,
      1.09,
      1.0225,
      0.955,
      0.8875,
      0.8175,
      0.75,
      0.6825,
      0.6125,
      0.545,
      0.4775,
      0.41,
      0.34,
      0.2725,
      0.205,
      0.135,
      0.0675,
      0
    ],
    "SoftwareVersions": "syngo_MR_D13",
    "SpacingBetweenSlices": 3.3,
    "StationName": "FBMTMR1",
    "TaskName": "read",
    "TotalReadoutTime": 0.0409508,
    "TxRefAmp": 400.966,
    "dataset": "ds003126",
    "dcmmeta_affine": [
      [
        -2.985020399093628,
        -0.27691197395324707,
        -0.12529180943965912,
        108.47748565673828
      ],
      [
        -0.21182121336460114,
        2.759531259536743,
        -1.273398756980896,
        -99.54743957519531
      ],
      [
        -0.2116260677576065,
        1.143812656402588,
        3.0418343544006348,
        -47.23088836669922
      ],
      [
        0.0,
        0.0,
        0.0,
        1.0
      ]
    ],
    "dcmmeta_reorient_transform": [
      [
        0.0,
        -1.0,
        0.0,
        63.0
      ],
      [
        1.0,
        0.0,
        0.0,
        0.0
      ],
      [
        0.0,
        0.0,
        1.0,
        0.0
      ],
      [
        0.0,
        0.0,
        0.0,
        1.0
      ]
    ],
    "dcmmeta_shape": [
      64,
      64,
      34,
      129
    ],
    "dcmmeta_slice_dim": 2,
    "dcmmeta_version": 0.6,
    "global": {
      "const": {
        "AcquisitionMatrix": [
          64,
          0,
          0,
          64
        ],
        "AngioFlag": "N",
        "BitsAllocated": 16,
        "BitsStored": 12,
        "BodyPartExamined": "HEAD",
        "Columns": 384,
        "EchoNumbers": 1,
        "EchoTime": 33.0,
        "EchoTrainLength": 64,
        "FlipAngle": 90.0,
        "HighBit": 11,
        "ImageOrientationPatient": [
          0.99500676601225,
          0.07060707231039,
          -0.0705420224377,
          -0.0923039879732,
          0.91984372372241,
          -0.3812708980931
        ],
        "ImagePositionPatient": [
          -524.32936780415,
          -549.71940987292,
          241.69951299295
        ],
        "ImageType": [
          "ORIGINAL",
          "PRIMARY",
          "M",
          "ND",
          "NORM",
          "MOSAIC"
        ],
        "ImagedNucleus": "1H",
        "ImagingFrequency": 123.214318,
        "InPlanePhaseEncodingDirection": "COL",
        "MRAcquisitionType": "2D",
        "MagneticFieldStrength": 3.0,
        "Manufacturer": "SIEMENS",
        "ManufacturerModelName": "Skyra",
        "Modality": "MR",
        "NumberOfAverages": 1.0,
        "NumberOfPhaseEncodingSteps": 64,
        "PercentPhaseFieldOfView": 100.0,
        "PercentSampling": 100.0,
        "PerformedProcedureStepStartTime": "115719.235000",
        "PhotometricInterpretation": "MONOCHROME2",
        "PixelBandwidth": 1700.0,
        "PixelRepresentation": 0,
        "PixelSpacing": [
          3.0,
          3.0
        ],
        "ProtocolName": "fMRI_1",
        "RepetitionTime": 2340.0,
        "Rows": 384,
        "SAR": 0.16911805566381,
        "SamplesPerPixel": 1,
        "ScanOptions": "FS",
        "ScanningSequence": "EP",
        "SequenceName": "*epfid2d1_64",
        "SequenceVariant": "SK",
        "SeriesDescription": "fMRI_1",
        "SeriesNumber": 2,
        "SeriesTime": "120022.374000",
        "SliceLocation": -9.2413032012477,
        "SliceThickness": 3.0,
        "SmallestImagePixelValue": 0,
        "SoftwareVersions": "syngo MR D13",
        "SpacingBetweenSlices": 3.2999999216507,
        "SpecificCharacterSet": "ISO_IR 100",
        "StudyID": "1",
        "StudyTime": "115719.174000",
        "TransmitCoilName": "Body",
        "VariableFlipAngleFlag": "N",
        "WindowCenterWidthExplanation": "Algo1",
        "dBdt": 0.0
      },
      "slices": {}
    },
    "modality": "bold",
    "run_id": 1,
    "session_id": "2",
    "subject_id": "047EPKL013034",
    "task_id": "read",
    "time": {
      "samples": {
        "AcquisitionNumber": [
          1,
          2,
          3,
          4,
          5,
          6,
          7,
          8,
          9,
          10,
          11,
          12,
          13,
          14,
          15,
          16,
          17,
          18,
          19,
          20,
          21,
          22,
          23,
          24,
          25,
          26,
          27,
          28,
          29,
          30,
          31,
          32,
          33,
          34,
          35,
          36,
          37,
          38,
          39,
          40,
          41,
          42,
          43,
          44,
          45,
          46,
          47,
          48,
          49,
          50,
          51,
          52,
          53,
          54,
          55,
          56,
          57,
          58,
          59,
          60,
          61,
          62,
          63,
          64,
          65,
          66,
          67,
          68,
          69,
          70,
          71,
          72,
          73,
          74,
          75,
          76,
          77,
          78,
          79,
          80,
          81,
          82,
          83,
          84,
          85,
          86,
          87,
          88,
          89,
          90,
          91,
          92,
          93,
          94,
          95,
          96,
          97,
          98,
          99,
          100,
          101,
          102,
          103,
          104,
          105,
          106,
          107,
          108,
          109,
          110,
          111,
          112,
          113,
          114,
          115,
          116,
          117,
          118,
          119,
          120,
          121,
          122,
          123,
          124,
          125,
          126,
          127,
          128,
          129
        ],
        "AcquisitionTime": [
          "115936.755000",
          "115939.095000",
          "115941.435000",
          "115943.775000",
          "115946.115000",
          "115948.455000",
          "115950.795000",
          "115953.135000",
          "115955.475000",
          "115957.815000",
          "120000.155000",
          "120002.495000",
          "120004.835000",
          "120007.175000",
          "120009.515000",
          "120011.855000",
          "120014.195000",
          "120016.535000",
          "120018.875000",
          "120021.215000",
          "120023.555000",
          "120025.895000",
          "120028.235000",
          "120030.575000",
          "120032.915000",
          "120035.255000",
          "120037.595000",
          "120039.935000",
          "120042.275000",
          "120044.615000",
          "120046.955000",
          "120049.295000",
          "120051.635000",
          "120053.975000",
          "120056.315000",
          "120058.655000",
          "120100.995000",
          "120103.335000",
          "120105.675000",
          "120108.015000",
          "120110.355000",
          "120112.695000",
          "120115.035000",
          "120117.375000",
          "120119.715000",
          "120122.055000",
          "120124.395000",
          "120126.735000",
          "120129.075000",
          "120131.415000",
          "120133.755000",
          "120136.095000",
          "120138.435000",
          "120140.775000",
          "120143.115000",
          "120145.455000",
          "120147.795000",
          "120150.135000",
          "120152.475000",
          "120154.815000",
          "120157.155000",
          "120159.495000",
          "120201.835000",
          "120204.175000",
          "120206.515000",
          "120208.855000",
          "120211.195000",
          "120213.535000",
          "120215.875000",
          "120218.215000",
          "120220.555000",
          "120222.895000",
          "120225.235000",
          "120227.575000",
          "120229.915000",
          "120232.255000",
          "120234.595000",
          "120236.935000",
          "120239.275000",
          "120241.615000",
          "120243.955000",
          "120246.295000",
          "120248.635000",
          "120250.975000",
          "120253.315000",
          "120255.655000",
          "120257.995000",
          "120300.335000",
          "120302.675000",
          "120305.015000",
          "120307.355000",
          "120309.695000",
          "120312.035000",
          "120314.375000",
          "120316.715000",
          "120319.055000",
          "120321.395000",
          "120323.735000",
          "120326.075000",
          "120328.415000",
          "120330.755000",
          "120333.095000",
          "120335.435000",
          "120337.775000",
          "120340.115000",
          "120342.455000",
          "120344.795000",
          "120347.135000",
          "120349.475000",
          "120351.815000",
          "120354.155000",
          "120356.495000",
          "120358.835000",
          "120401.175000",
          "120403.515000",
          "120405.855000",
          "120408.195000",
          "120410.535000",
          "120412.875000",
          "120415.215000",
          "120417.555000",
          "120419.895000",
          "120422.235000",
          "120424.575000",
          "120426.915000",
          "120429.255000",
          "120431.595000",
          "120433.935000",
          "120436.275000"
        ],
        "ContentTime": [
          "120022.378000",
          "120022.382000",
          "120022.384000",
          "120022.392000",
          "120022.395000",
          "120022.400000",
          "120022.403000",
          "120022.406000",
          "120022.411000",
          "120022.414000",
          "120022.417000",
          "120022.419000",
          "120022.422000",
          "120022.425000",
          "120022.428000",
          "120022.430000",
          "120022.433000",
          "120022.436000",
          "120022.438000",
          "120022.441000",
          "120122.372000",
          "120122.387000",
          "120122.390000",
          "120122.395000",
          "120122.398000",
          "120122.401000",
          "120122.404000",
          "120122.406000",
          "120122.409000",
          "120122.412000",
          "120122.415000",
          "120122.418000",
          "120122.420000",
          "120122.423000",
          "120122.426000",
          "120122.429000",
          "120122.431000",
          "120122.434000",
          "120122.437000",
          "120122.440000",
          "120122.443000",
          "120122.445000",
          "120122.448000",
          "120122.450000",
          "120122.453000",
          "120202.372000",
          "120202.375000",
          "120202.384000",
          "120202.387000",
          "120202.390000",
          "120202.392000",
          "120202.395000",
          "120202.398000",
          "120202.401000",
          "120202.403000",
          "120202.407000",
          "120202.410000",
          "120202.412000",
          "120202.415000",
          "120202.418000",
          "120202.421000",
          "120202.424000",
          "120302.372000",
          "120302.375000",
          "120302.378000",
          "120302.380000",
          "120302.390000",
          "120302.392000",
          "120302.395000",
          "120302.398000",
          "120302.401000",
          "120302.404000",
          "120302.407000",
          "120302.409000",
          "120302.412000",
          "120302.415000",
          "120302.418000",
          "120302.420000",
          "120302.423000",
          "120302.426000",
          "120302.429000",
          "120302.431000",
          "120302.434000",
          "120302.437000",
          "120302.439000",
          "120302.442000",
          "120302.445000",
          "120302.448000",
          "120402.371000",
          "120402.375000",
          "120402.377000",
          "120402.380000",
          "120402.383000",
          "120402.386000",
          "120402.389000",
          "120402.392000",
          "120402.395000",
          "120402.398000",
          "120402.401000",
          "120402.404000",
          "120402.407000",
          "120402.409000",
          "120402.412000",
          "120402.415000",
          "120402.418000",
          "120402.420000",
          "120402.423000",
          "120402.426000",
          "120402.429000",
          "120402.432000",
          "120402.435000",
          "120402.437000",
          "120402.440000",
          "120402.443000",
          "120437.589000",
          "120437.592000",
          "120437.595000",
          "120437.598000",
          "120437.601000",
          "120437.604000",
          "120437.607000",
          "120437.610000",
          "120437.613000",
          "120437.616000",
          "120437.618000",
          "120437.621000",
          "120437.624000",
          "120437.627000",
          "120437.630000"
        ],
        "InstanceCreationTime": [
          "120022.378000",
          "120022.382000",
          "120022.384000",
          "120022.392000",
          "120022.395000",
          "120022.400000",
          "120022.403000",
          "120022.406000",
          "120022.411000",
          "120022.414000",
          "120022.417000",
          "120022.419000",
          "120022.422000",
          "120022.425000",
          "120022.428000",
          "120022.430000",
          "120022.433000",
          "120022.436000",
          "120022.438000",
          "120022.441000",
          "120122.372000",
          "120122.387000",
          "120122.390000",
          "120122.395000",
          "120122.398000",
          "120122.401000",
          "120122.404000",
          "120122.406000",
          "120122.409000",
          "120122.412000",
          "120122.415000",
          "120122.418000",
          "120122.420000",
          "120122.423000",
          "120122.426000",
          "120122.429000",
          "120122.431000",
          "120122.434000",
          "120122.437000",
          "120122.440000",
          "120122.443000",
          "120122.445000",
          "120122.448000",
          "120122.450000",
          "120122.453000",
          "120202.372000",
          "120202.375000",
          "120202.384000",
          "120202.387000",
          "120202.390000",
          "120202.392000",
          "120202.395000",
          "120202.398000",
          "120202.401000",
          "120202.403000",
          "120202.407000",
          "120202.410000",
          "120202.412000",
          "120202.415000",
          "120202.418000",
          "120202.421000",
          "120202.424000",
          "120302.372000",
          "120302.375000",
          "120302.378000",
          "120302.380000",
          "120302.390000",
          "120302.392000",
          "120302.395000",
          "120302.398000",
          "120302.401000",
          "120302.404000",
          "120302.407000",
          "120302.409000",
          "120302.412000",
          "120302.415000",
          "120302.418000",
          "120302.420000",
          "120302.423000",
          "120302.426000",
          "120302.429000",
          "120302.431000",
          "120302.434000",
          "120302.437000",
          "120302.439000",
          "120302.442000",
          "120302.445000",
          "120302.448000",
          "120402.371000",
          "120402.375000",
          "120402.377000",
          "120402.380000",
          "120402.383000",
          "120402.386000",
          "120402.389000",
          "120402.392000",
          "120402.395000",
          "120402.398000",
          "120402.401000",
          "120402.404000",
          "120402.407000",
          "120402.409000",
          "120402.412000",
          "120402.415000",
          "120402.418000",
          "120402.420000",
          "120402.423000",
          "120402.426000",
          "120402.429000",
          "120402.432000",
          "120402.435000",
          "120402.437000",
          "120402.440000",
          "120402.443000",
          "120437.589000",
          "120437.592000",
          "120437.595000",
          "120437.598000",
          "120437.601000",
          "120437.604000",
          "120437.607000",
          "120437.610000",
          "120437.613000",
          "120437.616000",
          "120437.618000",
          "120437.621000",
          "120437.624000",
          "120437.627000",
          "120437.630000"
        ],
        "InstanceNumber": [
          1,
          2,
          3,
          4,
          5,
          6,
          7,
          8,
          9,
          10,
          11,
          12,
          13,
          14,
          15,
          16,
          17,
          18,
          19,
          20,
          21,
          22,
          23,
          24,
          25,
          26,
          27,
          28,
          29,
          30,
          31,
          32,
          33,
          34,
          35,
          36,
          37,
          38,
          39,
          40,
          41,
          42,
          43,
          44,
          45,
          46,
          47,
          48,
          49,
          50,
          51,
          52,
          53,
          54,
          55,
          56,
          57,
          58,
          59,
          60,
          61,
          62,
          63,
          64,
          65,
          66,
          67,
          68,
          69,
          70,
          71,
          72,
          73,
          74,
          75,
          76,
          77,
          78,
          79,
          80,
          81,
          82,
          83,
          84,
          85,
          86,
          87,
          88,
          89,
          90,
          91,
          92,
          93,
          94,
          95,
          96,
          97,
          98,
          99,
          100,
          101,
          102,
          103,
          104,
          105,
          106,
          107,
          108,
          109,
          110,
          111,
          112,
          113,
          114,
          115,
          116,
          117,
          118,
          119,
          120,
          121,
          122,
          123,
          124,
          125,
          126,
          127,
          128,
          129
        ],
        "LargestImagePixelValue": [
          2511,
          1891,
          2162,
          2258,
          2027,
          1924,
          2460,
          1943,
          1831,
          1945,
          1964,
          2029,
          1809,
          2316,
          2705,
          1930,
          1953,
          2318,
          1911,
          2020,
          2414,
          2024,
          1853,
          2334,
          2418,
          2005,
          2082,
          2326,
          2001,
          1904,
          2030,
          1821,
          1740,
          1970,
          2105,
          1842,
          2388,
          2128,
          1941,
          1916,
          1806,
          2586,
          2217,
          2659,
          1897,
          1902,
          1854,
          1921,
          2592,
          1896,
          2240,
          1885,
          1989,
          1966,
          1979,
          1826,
          2069,
          1845,
          2185,
          2042,
          2048,
          2084,
          2074,
          2371,
          2246,
          1838,
          1943,
          2010,
          1789,
          1863,
          2394,
          2062,
          2074,
          2432,
          1854,
          1916,
          1869,
          3106,
          1869,
          1935,
          1890,
          1953,
          2363,
          2205,
          2456,
          2073,
          1976,
          2302,
          1840,
          1988,
          1953,
          2246,
          1773,
          2154,
          2435,
          1954,
          2509,
          2421,
          1883,
          2110,
          2281,
          1884,
          2451,
          1892,
          1834,
          2523,
          2052,
          2259,
          2775,
          1967,
          2163,
          2492,
          1980,
          1935,
          2458,
          2462,
          1879,
          2242,
          2331,
          1965,
          1875,
          2428,
          2272,
          2170,
          2225,
          2060,
          2003,
          1869,
          2017
        ],
        "WindowCenter": [
          806.0,
          806.0,
          803.0,
          803.0,
          805.0,
          805.0,
          806.0,
          801.0,
          801.0,
          805.0,
          804.0,
          806.0,
          802.0,
          808.0,
          803.0,
          803.0,
          801.0,
          805.0,
          803.0,
          805.0,
          805.0,
          803.0,
          804.0,
          804.0,
          805.0,
          804.0,
          805.0,
          804.0,
          803.0,
          804.0,
          801.0,
          803.0,
          806.0,
          809.0,
          806.0,
          805.0,
          807.0,
          804.0,
          803.0,
          806.0,
          804.0,
          806.0,
          804.0,
          806.0,
          803.0,
          804.0,
          804.0,
          804.0,
          807.0,
          805.0,
          804.0,
          804.0,
          804.0,
          804.0,
          805.0,
          805.0,
          805.0,
          805.0,
          806.0,
          805.0,
          805.0,
          806.0,
          807.0,
          806.0,
          805.0,
          807.0,
          805.0,
          804.0,
          802.0,
          806.0,
          806.0,
          803.0,
          804.0,
          804.0,
          804.0,
          805.0,
          805.0,
          802.0,
          810.0,
          810.0,
          804.0,
          808.0,
          805.0,
          805.0,
          807.0,
          806.0,
          805.0,
          806.0,
          805.0,
          804.0,
          805.0,
          807.0,
          806.0,
          807.0,
          805.0,
          807.0,
          806.0,
          807.0,
          806.0,
          808.0,
          807.0,
          805.0,
          807.0,
          808.0,
          808.0,
          810.0,
          804.0,
          811.0,
          803.0,
          803.0,
          803.0,
          806.0,
          807.0,
          808.0,
          807.0,
          807.0,
          808.0,
          809.0,
          806.0,
          806.0,
          808.0,
          810.0,
          811.0,
          809.0,
          806.0,
          807.0,
          805.0,
          807.0,
          808.0
        ],
        "WindowWidth": [
          1728.0,
          1727.0,
          1720.0,
          1718.0,
          1722.0,
          1722.0,
          1728.0,
          1712.0,
          1711.0,
          1723.0,
          1719.0,
          1722.0,
          1713.0,
          1732.0,
          1723.0,
          1717.0,
          1713.0,
          1725.0,
          1718.0,
          1721.0,
          1725.0,
          1718.0,
          1720.0,
          1721.0,
          1723.0,
          1720.0,
          1722.0,
          1722.0,
          1718.0,
          1720.0,
          1713.0,
          1719.0,
          1724.0,
          1733.0,
          1724.0,
          1721.0,
          1730.0,
          1722.0,
          1717.0,
          1724.0,
          1719.0,
          1725.0,
          1721.0,
          1730.0,
          1719.0,
          1720.0,
          1720.0,
          1720.0,
          1729.0,
          1723.0,
          1721.0,
          1719.0,
          1722.0,
          1722.0,
          1721.0,
          1725.0,
          1721.0,
          1722.0,
          1728.0,
          1723.0,
          1723.0,
          1726.0,
          1727.0,
          1723.0,
          1724.0,
          1729.0,
          1723.0,
          1721.0,
          1712.0,
          1723.0,
          1726.0,
          1717.0,
          1718.0,
          1724.0,
          1720.0,
          1723.0,
          1723.0,
          1723.0,
          1736.0,
          1739.0,
          1723.0,
          1731.0,
          1725.0,
          1724.0,
          1729.0,
          1727.0,
          1724.0,
          1727.0,
          1721.0,
          1721.0,
          1723.0,
          1731.0,
          1725.0,
          1732.0,
          1728.0,
          1729.0,
          1726.0,
          1731.0,
          1726.0,
          1732.0,
          1730.0,
          1724.0,
          1731.0,
          1731.0,
          1732.0,
          1736.0,
          1718.0,
          1739.0,
          1726.0,
          1719.0,
          1718.0,
          1728.0,
          1728.0,
          1730.0,
          1732.0,
          1730.0,
          1731.0,
          1736.0,
          1728.0,
          1727.0,
          1730.0,
          1740.0,
          1738.0,
          1735.0,
          1727.0,
          1729.0,
          1727.0,
          1730.0,
          1734.0
        ]
      },
      "slices": {}
    }
  },
  "dummy_trs": 0,
  "dvars_nstd": 46.68567618749999,
  "dvars_std": 1.4074452564843747,
  "dvars_vstd": 1.0966570172656251,
  "efc": 0.5605503081415462,
  "fber": 1654.356201171875,
  "fd_mean": 0.6711951513405913,
  "fd_num": 111,
  "fd_perc": 86.04651162790698,
  "fwhm_avg": 1.8775269781521962,
  "fwhm_x": 1.7749066666666666,
  "fwhm_y": 2.1022166666666666,
  "fwhm_z": 1.755457601123255,
  "gcor": 0.035705,
  "gsr_x": -0.00329344323836267,
  "gsr_y": 0.040229398757219315,
  "provenance": {
    "md5sum": "e31b3c5f60453d38906c3a746fd6044e",
    "settings": {
      "fd_thres": 0.2,
      "testing": false
    },
    "software": "mriqc",
    "version": "22.0.1",
    "webapi_port": null,
    "webapi_url": "https://mriqc.nimh.nih.gov/api/v1"
  },
  "size_t": 129,
  "size_x": 64,
  "size_y": 64,
  "size_z": 34,
  "snr": 5.7288759421811655,
  "spacing_tr": 2.3399999141693115,
  "spacing_x": 3.0,
  "spacing_y": 3.0,
  "spacing_z": 3.299999952316284,
  "summary_bg_k": 60.92913305926124,
  "summary_bg_mad": 10.021930398630328,
  "summary_bg_mean": 35.01461410522461,
  "summary_bg_median": 22.44186019897461,
  "summary_bg_n": 74092.0,
  "summary_bg_p05": 13.015503883361816,
  "summary_bg_p95": 93.00348815917967,
  "summary_bg_stdv": 48.10074996948242,
  "summary_fg_k": 2.302507663400556,
  "summary_fg_mad": 135.3420184260482,
  "summary_fg_mean": 948.505859375,
  "summary_fg_median": 935.027099609375,
  "summary_fg_n": 33642.0,
  "summary_fg_p05": 732.1670440673828,
  "summary_fg_p95": 1268.897290039062,
  "summary_fg_stdv": 163.21058654785156,
  "tsnr": 43.33617148047779
}