{
  "aor": 0.013675923076923075,
  "aqi": 0.029605634538461538,
  "bids_meta": {
    "AcquisitionMatrixPE": 64,
    "AcquisitionNumber": 1,
    "AcquisitionTime": "08:55:56.067500",
    "BandwidthPerPixelPhaseEncode": 24.038,
    "BaseResolution": 64,
    "BodyPartExamined": "HEAD",
    "ConsistencyInfo": "N4_VD13A_LATEST_20120616",
    "ConversionSoftware": "dcm2niix",
    "ConversionSoftwareVersion": "v1.0.20181125  GCC6.3.0",
    "DerivedVendorReportedEchoSpacing": 0.000650012,
    "DeviceSerialNumber": "45250",
    "DwellTime": 4.6e-06,
    "EchoTime": 0.033,
    "EchoTrainLength": 64,
    "EffectiveEchoSpacing": 0.000650012,
    "FlipAngle": 90,
    "ImageOrientationPatientDICOM": [
      0.999919,
      -0.00670356,
      -0.0107914,
      0.0034904,
      0.961723,
      -0.274
    ],
    "ImageType": [
      "ORIGINAL",
      "PRIMARY",
      "M",
      "ND",
      "NORM",
      "MOSAIC"
    ],
    "ImagingFrequency": 123.22,
    "InPlanePhaseEncodingDirectionDICOM": "COL",
    "InstitutionAddress": "Kopernikusstr._26_Graz_Graz_AT_8010",
    "InstitutionName": "KFU",
    "InstitutionalDepartmentName": "Department",
    "MRAcquisitionType": "2D",
    "MagneticFieldStrength": 3,
    "Manufacturer": "Siemens",
    "ManufacturersModelName": "Skyra",
    "Modality": "MR",
    "PartialFourier": 1,
    "PatientPosition": "HFS",
    "PercentPhaseFOV": 100,
    "PhaseEncodingDirection": "j-",
    "PhaseEncodingSteps": 64,
    "PhaseResolution": 1,
    "PixelBandwidth": 1700,
    "ProcedureStepDescription": "KFU_Entw-Psy",
    "ProtocolName": "fMRI_1",
    "PulseSequenceDetails": "%SiemensSeq%_ep2d_pace",
    "ReceiveCoilActiveElements": "HE1-4",
    "ReceiveCoilName": "HeadNeck_20",
    "ReconMatrixPE": 64,
    "RepetitionTime": 2.34,
    "SAR": 0.163921,
    "ScanOptions": "FS",
    "ScanningSequence": "EP",
    "SequenceName": "_epfid2d1_64",
    "SequenceVariant": "SK",
    "SeriesDescription": "fMRI_1",
    "SeriesNumber": 2,
    "ShimSetting": [
      -1579,
      -3661,
      -4283,
      332,
      840,
      300,
      234,
      -281
    ],
    "SliceThickness": 3,
    "SliceTiming": [
      2.2525,
      2.1825,
      2.115,
      2.0475,
      1.9775,
      1.91,
      1.8425,
      1.775,
      1.705,
      1.6375,
      1.57,
      1.5,
      1.4325,
      1.365,
      1.2975,
      1.2275,
      1.16,
      1.0925,
      1.0225,
      0.955,
      0.8875,
      0.8175,
      0.75,
      0.6825,
      0.615,
      0.545,
      0.4775,
      0.41,
      0.34,
      0.2725,
      0.205,
      0.1375,
      0.0675,
      0
    ],
    "SoftwareVersions": "syngo_MR_D13",
    "SpacingBetweenSlices": 3.3,
    "StationName": "FBMTMR1",
    "TaskName": "read",
    "TotalReadoutTime": 0.0409508,
    "TxRefAmp": 327.431,
    "dataset": "ds003126",
    "dcmmeta_affine": [
      [
        -2.999758005142212,
        0.01047119963914156,
        -0.04030996188521385,
        96.52511596679688
      ],
      [
        0.02011066861450672,
        2.8851702213287354,
        -0.9040020704269409,
        -98.71744537353516
      ],
      [
        -0.03237427771091461,
        0.8219993710517883,
        3.1735081672668457,
        -32.726524353027344
      ],
      [
        0.0,
        0.0,
        0.0,
        1.0
      ]
    ],
    "dcmmeta_reorient_transform": [
      [
        0.0,
        -1.0,
        0.0,
        63.0
      ],
      [
        1.0,
        0.0,
        0.0,
        0.0
      ],
      [
        0.0,
        0.0,
        1.0,
        0.0
      ],
      [
        0.0,
        0.0,
        0.0,
        1.0
      ]
    ],
    "dcmmeta_shape": [
      64,
      64,
      34,
      130
    ],
    "dcmmeta_slice_dim": 2,
    "dcmmeta_version": 0.6,
    "global": {
      "const": {
        "AcquisitionMatrix": [
          64,
          0,
          0,
          64
        ],
        "AngioFlag": "N",
        "BitsAllocated": 16,
        "BitsStored": 12,
        "BodyPartExamined": "HEAD",
        "Columns": 384,
        "EchoNumbers": 1,
        "EchoTime": 33.0,
        "EchoTrainLength": 64,
        "FlipAngle": 90.0,
        "HighBit": 11,
        "ImageOrientationPatient": [
          0.99991930046882,
          -0.0067035560551,
          -0.0107914265116,
          0.00349039980092,
          0.96172341514092,
          -0.273999799049
        ],
        "ImagePositionPatient": [
          -578.8214558412,
          -541.45781284922,
          155.75922453012
        ],
        "ImageType": [
          "ORIGINAL",
          "PRIMARY",
          "M",
          "ND",
          "NORM",
          "MOSAIC"
        ],
        "ImagedNucleus": "1H",
        "ImagingFrequency": 123.219994,
        "InPlanePhaseEncodingDirection": "COL",
        "MRAcquisitionType": "2D",
        "MagneticFieldStrength": 3.0,
        "Manufacturer": "SIEMENS",
        "ManufacturerModelName": "Skyra",
        "Modality": "MR",
        "NumberOfAverages": 1.0,
        "NumberOfPhaseEncodingSteps": 64,
        "PercentPhaseFieldOfView": 100.0,
        "PercentSampling": 100.0,
        "PerformedProcedureStepStartTime": "084943.977000",
        "PhotometricInterpretation": "MONOCHROME2",
        "PixelBandwidth": 1700.0,
        "PixelRepresentation": 0,
        "PixelSpacing": [
          3.0,
          3.0
        ],
        "ProtocolName": "fMRI_1",
        "RepetitionTime": 2340.0,
        "Rows": 384,
        "SAR": 0.16392087945526,
        "SamplesPerPixel": 1,
        "ScanOptions": "FS",
        "ScanningSequence": "EP",
        "SequenceName": "*epfid2d1_64",
        "SequenceVariant": "SK",
        "SeriesDescription": "fMRI_1",
        "SeriesNumber": 2,
        "SeriesTime": "085632.353000",
        "SliceLocation": -5.608500819639,
        "SliceThickness": 3.0,
        "SmallestImagePixelValue": 0,
        "SoftwareVersions": "syngo MR D13",
        "SpacingBetweenSlices": 3.2999999049499,
        "SpecificCharacterSet": "ISO_IR 100",
        "StudyID": "1",
        "StudyTime": "084943.927000",
        "TransmitCoilName": "Body",
        "VariableFlipAngleFlag": "N",
        "WindowCenterWidthExplanation": "Algo1",
        "dBdt": 0.0
      },
      "slices": {}
    },
    "modality": "bold",
    "run_id": 1,
    "session_id": "2",
    "subject_id": "047EPKL012073",
    "task_id": "read",
    "time": {
      "samples": {
        "AcquisitionNumber": [
          1,
          2,
          3,
          4,
          5,
          6,
          7,
          8,
          9,
          10,
          11,
          12,
          13,
          14,
          15,
          16,
          17,
          18,
          19,
          20,
          21,
          22,
          23,
          24,
          25,
          26,
          27,
          28,
          29,
          30,
          31,
          32,
          33,
          34,
          35,
          36,
          37,
          38,
          39,
          40,
          41,
          42,
          43,
          44,
          45,
          46,
          47,
          48,
          49,
          50,
          51,
          52,
          53,
          54,
          55,
          56,
          57,
          58,
          59,
          60,
          61,
          62,
          63,
          64,
          65,
          66,
          67,
          68,
          69,
          70,
          71,
          72,
          73,
          74,
          75,
          76,
          77,
          78,
          79,
          80,
          81,
          82,
          83,
          84,
          85,
          86,
          87,
          88,
          89,
          90,
          91,
          92,
          93,
          94,
          95,
          96,
          97,
          98,
          99,
          100,
          101,
          102,
          103,
          104,
          105,
          106,
          107,
          108,
          109,
          110,
          111,
          112,
          113,
          114,
          115,
          116,
          117,
          118,
          119,
          120,
          121,
          122,
          123,
          124,
          125,
          126,
          127,
          128,
          129,
          130
        ],
        "AcquisitionTime": [
          "085556.067500",
          "085558.407500",
          "085600.747500",
          "085603.087500",
          "085605.427500",
          "085607.767500",
          "085610.107500",
          "085612.447500",
          "085614.787500",
          "085617.127500",
          "085619.467500",
          "085621.807500",
          "085624.147500",
          "085626.487500",
          "085628.827500",
          "085631.167500",
          "085633.507500",
          "085635.847500",
          "085638.187500",
          "085640.527500",
          "085642.867500",
          "085645.207500",
          "085647.547500",
          "085649.887500",
          "085652.227500",
          "085654.567500",
          "085656.907500",
          "085659.247500",
          "085701.587500",
          "085703.927500",
          "085706.267500",
          "085708.607500",
          "085710.947500",
          "085713.287500",
          "085715.627500",
          "085717.967500",
          "085720.307500",
          "085722.647500",
          "085724.987500",
          "085727.327500",
          "085729.667500",
          "085732.007500",
          "085734.347500",
          "085736.687500",
          "085739.027500",
          "085741.367500",
          "085743.707500",
          "085746.047500",
          "085748.387500",
          "085750.727500",
          "085753.067500",
          "085755.407500",
          "085757.747500",
          "085800.087500",
          "085802.427500",
          "085804.767500",
          "085807.107500",
          "085809.447500",
          "085811.787500",
          "085814.127500",
          "085816.467500",
          "085818.807500",
          "085821.147500",
          "085823.487500",
          "085825.827500",
          "085828.167500",
          "085830.507500",
          "085832.847500",
          "085835.187500",
          "085837.527500",
          "085839.867500",
          "085842.207500",
          "085844.547500",
          "085846.887500",
          "085849.227500",
          "085851.567500",
          "085853.907500",
          "085856.247500",
          "085858.587500",
          "085900.927500",
          "085903.267500",
          "085905.607500",
          "085907.947500",
          "085910.287500",
          "085912.627500",
          "085914.967500",
          "085917.307500",
          "085919.647500",
          "085921.987500",
          "085924.327500",
          "085926.667500",
          "085929.007500",
          "085931.347500",
          "085933.687500",
          "085936.027500",
          "085938.367500",
          "085940.707500",
          "085943.047500",
          "085945.387500",
          "085947.727500",
          "085950.067500",
          "085952.407500",
          "085954.747500",
          "085957.087500",
          "085959.427500",
          "090001.767500",
          "090004.107500",
          "090006.447500",
          "090008.787500",
          "090011.127500",
          "090013.467500",
          "090015.807500",
          "090018.147500",
          "090020.487500",
          "090022.827500",
          "090025.167500",
          "090027.507500",
          "090029.847500",
          "090032.187500",
          "090034.527500",
          "090036.867500",
          "090039.207500",
          "090041.547500",
          "090043.887500",
          "090046.227500",
          "090048.567500",
          "090050.907500",
          "090053.247500",
          "090055.587500",
          "090057.927500"
        ],
        "ContentTime": [
          "085632.358000",
          "085632.362000",
          "085632.365000",
          "085632.367000",
          "085632.370000",
          "085632.373000",
          "085632.375000",
          "085632.378000",
          "085632.383000",
          "085632.386000",
          "085632.389000",
          "085632.395000",
          "085632.398000",
          "085632.401000",
          "085632.403000",
          "085632.406000",
          "085732.352000",
          "085732.355000",
          "085732.364000",
          "085732.379000",
          "085732.381000",
          "085732.384000",
          "085732.387000",
          "085732.390000",
          "085732.393000",
          "085732.395000",
          "085732.398000",
          "085732.401000",
          "085732.403000",
          "085732.406000",
          "085732.409000",
          "085732.415000",
          "085732.418000",
          "085732.420000",
          "085732.423000",
          "085732.426000",
          "085732.428000",
          "085732.431000",
          "085732.434000",
          "085732.437000",
          "085732.440000",
          "085832.351000",
          "085832.355000",
          "085832.357000",
          "085832.360000",
          "085832.368000",
          "085832.371000",
          "085832.374000",
          "085832.376000",
          "085832.379000",
          "085832.382000",
          "085832.385000",
          "085832.387000",
          "085832.390000",
          "085832.393000",
          "085832.396000",
          "085832.399000",
          "085832.402000",
          "085832.405000",
          "085832.408000",
          "085832.411000",
          "085832.414000",
          "085832.417000",
          "085832.419000",
          "085832.422000",
          "085832.429000",
          "085832.431000",
          "085932.351000",
          "085932.355000",
          "085932.358000",
          "085932.362000",
          "085932.364000",
          "085932.367000",
          "085932.369000",
          "085932.372000",
          "085932.375000",
          "085932.378000",
          "085932.380000",
          "085932.383000",
          "085932.386000",
          "085932.389000",
          "085932.391000",
          "085932.394000",
          "085932.397000",
          "085932.400000",
          "085932.402000",
          "085932.405000",
          "085932.408000",
          "085932.411000",
          "085932.414000",
          "085932.417000",
          "085932.419000",
          "090032.352000",
          "090032.355000",
          "090032.358000",
          "090032.361000",
          "090032.363000",
          "090032.366000",
          "090032.369000",
          "090032.371000",
          "090032.374000",
          "090032.377000",
          "090032.380000",
          "090032.382000",
          "090032.385000",
          "090032.388000",
          "090032.391000",
          "090032.393000",
          "090032.396000",
          "090032.399000",
          "090032.401000",
          "090032.404000",
          "090032.407000",
          "090032.410000",
          "090032.412000",
          "090032.415000",
          "090032.418000",
          "090032.420000",
          "090058.995000",
          "090058.998000",
          "090059.002000",
          "090059.005000",
          "090059.009000",
          "090059.014000",
          "090059.018000",
          "090059.021000",
          "090059.024000",
          "090059.027000",
          "090059.030000",
          "090059.033000"
        ],
        "InstanceCreationTime": [
          "085632.358000",
          "085632.362000",
          "085632.365000",
          "085632.367000",
          "085632.370000",
          "085632.373000",
          "085632.375000",
          "085632.378000",
          "085632.383000",
          "085632.386000",
          "085632.389000",
          "085632.395000",
          "085632.398000",
          "085632.401000",
          "085632.403000",
          "085632.406000",
          "085732.352000",
          "085732.355000",
          "085732.364000",
          "085732.379000",
          "085732.381000",
          "085732.384000",
          "085732.387000",
          "085732.390000",
          "085732.393000",
          "085732.395000",
          "085732.398000",
          "085732.401000",
          "085732.403000",
          "085732.406000",
          "085732.409000",
          "085732.415000",
          "085732.418000",
          "085732.420000",
          "085732.423000",
          "085732.426000",
          "085732.428000",
          "085732.431000",
          "085732.434000",
          "085732.437000",
          "085732.440000",
          "085832.351000",
          "085832.355000",
          "085832.357000",
          "085832.360000",
          "085832.368000",
          "085832.371000",
          "085832.374000",
          "085832.376000",
          "085832.379000",
          "085832.382000",
          "085832.385000",
          "085832.387000",
          "085832.390000",
          "085832.393000",
          "085832.396000",
          "085832.399000",
          "085832.402000",
          "085832.405000",
          "085832.408000",
          "085832.411000",
          "085832.414000",
          "085832.417000",
          "085832.419000",
          "085832.422000",
          "085832.429000",
          "085832.431000",
          "085932.351000",
          "085932.355000",
          "085932.358000",
          "085932.362000",
          "085932.364000",
          "085932.367000",
          "085932.369000",
          "085932.372000",
          "085932.375000",
          "085932.378000",
          "085932.380000",
          "085932.383000",
          "085932.386000",
          "085932.389000",
          "085932.391000",
          "085932.394000",
          "085932.397000",
          "085932.400000",
          "085932.402000",
          "085932.405000",
          "085932.408000",
          "085932.411000",
          "085932.414000",
          "085932.417000",
          "085932.419000",
          "090032.352000",
          "090032.355000",
          "090032.358000",
          "090032.361000",
          "090032.363000",
          "090032.366000",
          "090032.369000",
          "090032.371000",
          "090032.374000",
          "090032.377000",
          "090032.380000",
          "090032.382000",
          "090032.385000",
          "090032.388000",
          "090032.391000",
          "090032.393000",
          "090032.396000",
          "090032.399000",
          "090032.401000",
          "090032.404000",
          "090032.407000",
          "090032.410000",
          "090032.412000",
          "090032.415000",
          "090032.418000",
          "090032.420000",
          "090058.995000",
          "090058.998000",
          "090059.002000",
          "090059.005000",
          "090059.009000",
          "090059.014000",
          "090059.018000",
          "090059.021000",
          "090059.024000",
          "090059.027000",
          "090059.030000",
          "090059.033000"
        ],
        "InstanceNumber": [
          1,
          2,
          3,
          4,
          5,
          6,
          7,
          8,
          9,
          10,
          11,
          12,
          13,
          14,
          15,
          16,
          17,
          18,
          19,
          20,
          21,
          22,
          23,
          24,
          25,
          26,
          27,
          28,
          29,
          30,
          31,
          32,
          33,
          34,
          35,
          36,
          37,
          38,
          39,
          40,
          41,
          42,
          43,
          44,
          45,
          46,
          47,
          48,
          49,
          50,
          51,
          52,
          53,
          54,
          55,
          56,
          57,
          58,
          59,
          60,
          61,
          62,
          63,
          64,
          65,
          66,
          67,
          68,
          69,
          70,
          71,
          72,
          73,
          74,
          75,
          76,
          77,
          78,
          79,
          80,
          81,
          82,
          83,
          84,
          85,
          86,
          87,
          88,
          89,
          90,
          91,
          92,
          93,
          94,
          95,
          96,
          97,
          98,
          99,
          100,
          101,
          102,
          103,
          104,
          105,
          106,
          107,
          108,
          109,
          110,
          111,
          112,
          113,
          114,
          115,
          116,
          117,
          118,
          119,
          120,
          121,
          122,
          123,
          124,
          125,
          126,
          127,
          128,
          129,
          130
        ],
        "LargestImagePixelValue": [
          2162,
          2193,
          2691,
          2234,
          2297,
          2171,
          2148,
          2038,
          2370,
          2278,
          2115,
          2201,
          2294,
          2010,
          2554,
          2390,
          2212,
          2290,
          2047,
          2372,
          2725,
          2138,
          2634,
          2449,
          2763,
          2015,
          2271,
          2596,
          2101,
          2242,
          2330,
          2218,
          2255,
          2574,
          2294,
          2420,
          2371,
          2150,
          2228,
          2178,
          2227,
          2016,
          2041,
          2021,
          2375,
          2447,
          2359,
          2252,
          2138,
          2118,
          2403,
          2157,
          2570,
          2625,
          2048,
          2341,
          2023,
          2433,
          2051,
          2057,
          2362,
          2525,
          2569,
          2680,
          2216,
          2089,
          2154,
          2163,
          2130,
          2227,
          2310,
          2513,
          2190,
          2182,
          2219,
          2494,
          2467,
          2004,
          2049,
          3032,
          2964,
          2358,
          2370,
          2024,
          2088,
          2125,
          1969,
          1966,
          2170,
          2219,
          2168,
          2301,
          1983,
          1998,
          2001,
          2139,
          2529,
          3474,
          3159,
          2156,
          2007,
          2116,
          2341,
          2350,
          1992,
          2347,
          2620,
          2433,
          3091,
          2366,
          2490,
          2861,
          1972,
          2138,
          2402,
          2656,
          2185,
          2463,
          2140,
          1998,
          2121,
          2008,
          2268,
          2545,
          1994,
          2268,
          2079,
          2150,
          2053,
          2255
        ],
        "WindowCenter": [
          837.0,
          840.0,
          842.0,
          844.0,
          842.0,
          843.0,
          842.0,
          843.0,
          844.0,
          847.0,
          844.0,
          843.0,
          842.0,
          843.0,
          846.0,
          843.0,
          842.0,
          844.0,
          844.0,
          844.0,
          844.0,
          843.0,
          841.0,
          840.0,
          840.0,
          840.0,
          842.0,
          844.0,
          844.0,
          845.0,
          844.0,
          846.0,
          848.0,
          844.0,
          845.0,
          848.0,
          842.0,
          843.0,
          842.0,
          845.0,
          844.0,
          843.0,
          845.0,
          845.0,
          846.0,
          844.0,
          844.0,
          843.0,
          843.0,
          847.0,
          845.0,
          845.0,
          843.0,
          841.0,
          839.0,
          842.0,
          842.0,
          846.0,
          844.0,
          847.0,
          847.0,
          847.0,
          846.0,
          844.0,
          841.0,
          843.0,
          843.0,
          845.0,
          845.0,
          845.0,
          844.0,
          843.0,
          844.0,
          847.0,
          843.0,
          842.0,
          843.0,
          846.0,
          838.0,
          840.0,
          840.0,
          837.0,
          832.0,
          834.0,
          837.0,
          842.0,
          842.0,
          845.0,
          845.0,
          845.0,
          843.0,
          845.0,
          844.0,
          847.0,
          847.0,
          848.0,
          846.0,
          842.0,
          842.0,
          847.0,
          840.0,
          846.0,
          847.0,
          848.0,
          849.0,
          849.0,
          846.0,
          848.0,
          845.0,
          848.0,
          843.0,
          846.0,
          841.0,
          843.0,
          845.0,
          847.0,
          845.0,
          844.0,
          843.0,
          846.0,
          846.0,
          845.0,
          847.0,
          846.0,
          846.0,
          846.0,
          845.0,
          846.0,
          845.0,
          847.0
        ],
        "WindowWidth": [
          1775.0,
          1783.0,
          1788.0,
          1794.0,
          1786.0,
          1790.0,
          1788.0,
          1789.0,
          1795.0,
          1798.0,
          1792.0,
          1789.0,
          1789.0,
          1791.0,
          1800.0,
          1789.0,
          1787.0,
          1793.0,
          1791.0,
          1791.0,
          1796.0,
          1789.0,
          1786.0,
          1782.0,
          1784.0,
          1782.0,
          1790.0,
          1795.0,
          1791.0,
          1794.0,
          1794.0,
          1799.0,
          1805.0,
          1797.0,
          1799.0,
          1802.0,
          1787.0,
          1792.0,
          1789.0,
          1795.0,
          1791.0,
          1790.0,
          1795.0,
          1797.0,
          1797.0,
          1794.0,
          1792.0,
          1790.0,
          1792.0,
          1798.0,
          1797.0,
          1795.0,
          1792.0,
          1785.0,
          1778.0,
          1790.0,
          1790.0,
          1798.0,
          1792.0,
          1802.0,
          1800.0,
          1801.0,
          1797.0,
          1792.0,
          1787.0,
          1791.0,
          1791.0,
          1796.0,
          1797.0,
          1797.0,
          1794.0,
          1794.0,
          1794.0,
          1803.0,
          1793.0,
          1791.0,
          1790.0,
          1794.0,
          1786.0,
          1783.0,
          1782.0,
          1773.0,
          1763.0,
          1767.0,
          1775.0,
          1787.0,
          1786.0,
          1795.0,
          1796.0,
          1794.0,
          1790.0,
          1798.0,
          1793.0,
          1799.0,
          1802.0,
          1809.0,
          1807.0,
          1788.0,
          1784.0,
          1797.0,
          1781.0,
          1800.0,
          1802.0,
          1804.0,
          1805.0,
          1807.0,
          1799.0,
          1803.0,
          1802.0,
          1801.0,
          1791.0,
          1801.0,
          1786.0,
          1790.0,
          1797.0,
          1800.0,
          1794.0,
          1794.0,
          1791.0,
          1798.0,
          1797.0,
          1798.0,
          1801.0,
          1799.0,
          1796.0,
          1799.0,
          1795.0,
          1799.0,
          1797.0,
          1803.0
        ]
      },
      "slices": {}
    }
  },
  "dummy_trs": 0,
  "dvars_nstd": 52.959350852093,
  "dvars_std": 1.4108248068217053,
  "dvars_vstd": 1.1415810845736432,
  "efc": 0.5847885999132392,
  "fber": 1784.5458984375,
  "fd_mean": 0.9930002425056882,
  "fd_num": 121,
  "fd_perc": 93.07692307692308,
  "fwhm_avg": 1.622709199373863,
  "fwhm_x": 1.5295266666666667,
  "fwhm_y": 1.7908766666666667,
  "fwhm_z": 1.5477242647882559,
  "gcor": 0.0413126,
  "gsr_x": -0.004487814847379923,
  "gsr_y": 0.037550367414951324,
  "provenance": {
    "md5sum": "36d292b8135cb3f1144a03a59659571a",
    "settings": {
      "fd_thres": 0.2,
      "testing": false
    },
    "software": "mriqc",
    "version": "22.0.1",
    "webapi_port": null,
    "webapi_url": "https://mriqc.nimh.nih.gov/api/v1"
  },
  "size_t": 130,
  "size_x": 64,
  "size_y": 64,
  "size_z": 34,
  "snr": 7.233505431850849,
  "spacing_tr": 2.3399999141693115,
  "spacing_x": 3.0,
  "spacing_y": 3.0,
  "spacing_z": 3.299999952316284,
  "summary_bg_k": 55.88050126682387,
  "summary_bg_mad": 8.986850718675718,
  "summary_bg_mean": 34.492942810058594,
  "summary_bg_median": 22.615385055541992,
  "summary_bg_n": 69648.0,
  "summary_bg_p05": 13.284615516662598,
  "summary_bg_p95": 94.98653907775856,
  "summary_bg_stdv": 42.207000732421875,
  "summary_fg_k": 2.1746769161931967,
  "summary_fg_mad": 135.36156445138985,
  "summary_fg_mean": 982.8773193359375,
  "summary_fg_median": 981.1500244140625,
  "summary_fg_n": 37036.0,
  "summary_fg_p05": 779.9903869628906,
  "summary_fg_p95": 1190.076904296875,
  "summary_fg_stdv": 135.63780212402344,
  "tsnr": 38.10007823188789
}