{
  "aor": 0.014084516129032259,
  "aqi": 0.03384994266129033,
  "bids_meta": {
    "AcquisitionMatrixPE": 64,
    "AcquisitionNumber": 1,
    "AcquisitionTime": "09:09:42.220000",
    "BandwidthPerPixelPhaseEncode": 24.038,
    "BaseResolution": 64,
    "BodyPartExamined": "HEAD",
    "ConsistencyInfo": "N4_VD13A_LATEST_20120616",
    "ConversionSoftware": "dcm2niix",
    "ConversionSoftwareVersion": "v1.0.20181125  GCC6.3.0",
    "DerivedVendorReportedEchoSpacing": 0.000650012,
    "DeviceSerialNumber": "45250",
    "DwellTime": 4.6e-06,
    "EchoTime": 0.033,
    "EchoTrainLength": 64,
    "EffectiveEchoSpacing": 0.000650012,
    "FlipAngle": 90,
    "ImageOrientationPatientDICOM": [
      0.999919,
      -0.00551887,
      -0.0114427,
      0.00349041,
      0.985394,
      -0.170252
    ],
    "ImageType": [
      "ORIGINAL",
      "PRIMARY",
      "M",
      "ND",
      "NORM",
      "MOSAIC"
    ],
    "ImagingFrequency": 123.22,
    "InPlanePhaseEncodingDirectionDICOM": "COL",
    "InstitutionAddress": "Kopernikusstr._26_Graz_Graz_AT_8010",
    "InstitutionName": "KFU",
    "InstitutionalDepartmentName": "Department",
    "MRAcquisitionType": "2D",
    "MagneticFieldStrength": 3,
    "Manufacturer": "Siemens",
    "ManufacturersModelName": "Skyra",
    "Modality": "MR",
    "PartialFourier": 1,
    "PatientPosition": "HFS",
    "PercentPhaseFOV": 100,
    "PhaseEncodingDirection": "j-",
    "PhaseEncodingSteps": 64,
    "PhaseResolution": 1,
    "PixelBandwidth": 1700,
    "ProcedureStepDescription": "KFU_Entw-Psy",
    "ProtocolName": "fMRI_3",
    "PulseSequenceDetails": "%SiemensSeq%_ep2d_pace",
    "ReceiveCoilActiveElements": "HE1-4",
    "ReceiveCoilName": "HeadNeck_20",
    "ReconMatrixPE": 64,
    "RepetitionTime": 2.34,
    "SAR": 0.163921,
    "ScanOptions": "FS",
    "ScanningSequence": "EP",
    "SequenceName": "_epfid2d1_64",
    "SequenceVariant": "SK",
    "SeriesDescription": "fMRI_3",
    "SeriesNumber": 9,
    "ShimSetting": [
      -1582,
      -3655,
      -4295,
      305,
      831,
      279,
      210,
      -290
    ],
    "SliceThickness": 3,
    "SliceTiming": [
      2.2525,
      2.1825,
      2.115,
      2.0475,
      1.98,
      1.91,
      1.8425,
      1.775,
      1.705,
      1.6375,
      1.57,
      1.5025,
      1.4325,
      1.365,
      1.2975,
      1.2275,
      1.16,
      1.0925,
      1.025,
      0.955,
      0.8875,
      0.82,
      0.75,
      0.6825,
      0.615,
      0.545,
      0.4775,
      0.41,
      0.3425,
      0.2725,
      0.205,
      0.1375,
      0.0675,
      0
    ],
    "SoftwareVersions": "syngo_MR_D13",
    "SpacingBetweenSlices": 3.3,
    "StationName": "FBMTMR1",
    "TaskName": "read",
    "TotalReadoutTime": 0.0409508,
    "TxRefAmp": 327.431,
    "dataset": "ds003126",
    "dcmmeta_affine": [
      [
        -2.999758005142212,
        0.010471235029399395,
        -0.040309980511665344,
        96.52511596679688
      ],
      [
        0.016556616872549057,
        2.9561831951141357,
        -0.5616536736488342,
        -108.26087188720703
      ],
      [
        -0.034328024834394455,
        0.5107553005218506,
        3.2516026496887207,
        -29.725557327270508
      ],
      [
        0.0,
        0.0,
        0.0,
        1.0
      ]
    ],
    "dcmmeta_reorient_transform": [
      [
        0.0,
        -1.0,
        0.0,
        63.0
      ],
      [
        1.0,
        0.0,
        0.0,
        0.0
      ],
      [
        0.0,
        0.0,
        1.0,
        0.0
      ],
      [
        0.0,
        0.0,
        0.0,
        1.0
      ]
    ],
    "dcmmeta_shape": [
      64,
      64,
      34,
      124
    ],
    "dcmmeta_slice_dim": 2,
    "dcmmeta_version": 0.6,
    "global": {
      "const": {
        "AcquisitionMatrix": [
          64,
          0,
          0,
          64
        ],
        "AngioFlag": "N",
        "BitsAllocated": 16,
        "BitsStored": 12,
        "BodyPartExamined": "HEAD",
        "Columns": 384,
        "EchoNumbers": 1,
        "EchoTime": 33.0,
        "EchoTrainLength": 64,
        "FlipAngle": 90.0,
        "HighBit": 11,
        "ImageOrientationPatient": [
          0.99991930036329,
          -0.0055188720375,
          -0.0114426750554,
          0.00349041176153,
          0.9853944155932,
          -0.1702517628205
        ],
        "ImagePositionPatient": [
          -578.82146266973,
          -548.3189366385,
          89.665356529919
        ],
        "ImageType": [
          "ORIGINAL",
          "PRIMARY",
          "M",
          "ND",
          "NORM",
          "MOSAIC"
        ],
        "ImagedNucleus": "1H",
        "ImagingFrequency": 123.220014,
        "InPlanePhaseEncodingDirection": "COL",
        "MRAcquisitionType": "2D",
        "MagneticFieldStrength": 3.0,
        "Manufacturer": "SIEMENS",
        "ManufacturerModelName": "Skyra",
        "Modality": "MR",
        "NumberOfAverages": 1.0,
        "NumberOfPhaseEncodingSteps": 64,
        "PercentPhaseFieldOfView": 100.0,
        "PercentSampling": 100.0,
        "PerformedProcedureStepStartTime": "084943.977000",
        "PhotometricInterpretation": "MONOCHROME2",
        "PixelBandwidth": 1700.0,
        "PixelRepresentation": 0,
        "PixelSpacing": [
          3.0,
          3.0
        ],
        "ProtocolName": "fMRI_3",
        "RepetitionTime": 2340.0,
        "Rows": 384,
        "SAR": 0.16392087945526,
        "SamplesPerPixel": 1,
        "ScanOptions": "FS",
        "ScanningSequence": "EP",
        "SequenceName": "*epfid2d1_64",
        "SequenceVariant": "SK",
        "SeriesDescription": "fMRI_3",
        "SeriesNumber": 9,
        "SeriesTime": "091037.657000",
        "SliceLocation": -12.042882389251,
        "SliceThickness": 3.0,
        "SmallestImagePixelValue": 0,
        "SoftwareVersions": "syngo MR D13",
        "SpacingBetweenSlices": 3.2999999408187,
        "SpecificCharacterSet": "ISO_IR 100",
        "StudyID": "1",
        "StudyTime": "084943.927000",
        "TransmitCoilName": "Body",
        "VariableFlipAngleFlag": "N",
        "WindowCenterWidthExplanation": "Algo1",
        "dBdt": 0.0
      },
      "slices": {}
    },
    "modality": "bold",
    "run_id": 3,
    "session_id": "2",
    "subject_id": "047EPKL012073",
    "task_id": "read",
    "time": {
      "samples": {
        "AcquisitionNumber": [
          1,
          2,
          3,
          4,
          5,
          6,
          7,
          8,
          9,
          10,
          11,
          12,
          13,
          14,
          15,
          16,
          17,
          18,
          19,
          20,
          21,
          22,
          23,
          24,
          25,
          26,
          27,
          28,
          29,
          30,
          31,
          32,
          33,
          34,
          35,
          36,
          37,
          38,
          39,
          40,
          41,
          42,
          43,
          44,
          45,
          46,
          47,
          48,
          49,
          50,
          51,
          52,
          53,
          54,
          55,
          56,
          57,
          58,
          59,
          60,
          61,
          62,
          63,
          64,
          65,
          66,
          67,
          68,
          69,
          70,
          71,
          72,
          73,
          74,
          75,
          76,
          77,
          78,
          79,
          80,
          81,
          82,
          83,
          84,
          85,
          86,
          87,
          88,
          89,
          90,
          91,
          92,
          93,
          94,
          95,
          96,
          97,
          98,
          99,
          100,
          101,
          102,
          103,
          104,
          105,
          106,
          107,
          108,
          109,
          110,
          111,
          112,
          113,
          114,
          115,
          116,
          117,
          118,
          119,
          120,
          121,
          122,
          123,
          124
        ],
        "AcquisitionTime": [
          "090942.220000",
          "090944.560000",
          "090946.900000",
          "090949.240000",
          "090951.580000",
          "090953.920000",
          "090956.260000",
          "090958.600000",
          "091000.940000",
          "091003.280000",
          "091005.620000",
          "091007.960000",
          "091010.300000",
          "091012.640000",
          "091014.980000",
          "091017.320000",
          "091019.660000",
          "091022.000000",
          "091024.340000",
          "091026.680000",
          "091029.020000",
          "091031.360000",
          "091033.700000",
          "091036.040000",
          "091038.380000",
          "091040.720000",
          "091043.060000",
          "091045.400000",
          "091047.740000",
          "091050.080000",
          "091052.420000",
          "091054.760000",
          "091057.100000",
          "091059.440000",
          "091101.780000",
          "091104.120000",
          "091106.460000",
          "091108.800000",
          "091111.140000",
          "091113.480000",
          "091115.820000",
          "091118.160000",
          "091120.500000",
          "091122.840000",
          "091125.180000",
          "091127.520000",
          "091129.860000",
          "091132.200000",
          "091134.540000",
          "091136.880000",
          "091139.220000",
          "091141.560000",
          "091143.900000",
          "091146.240000",
          "091148.580000",
          "091150.920000",
          "091153.260000",
          "091155.600000",
          "091157.940000",
          "091200.280000",
          "091202.620000",
          "091204.960000",
          "091207.300000",
          "091209.640000",
          "091211.980000",
          "091214.320000",
          "091216.660000",
          "091219.000000",
          "091221.340000",
          "091223.680000",
          "091226.020000",
          "091228.360000",
          "091230.700000",
          "091233.040000",
          "091235.380000",
          "091237.720000",
          "091240.060000",
          "091242.400000",
          "091244.740000",
          "091247.080000",
          "091249.420000",
          "091251.760000",
          "091254.100000",
          "091256.440000",
          "091258.780000",
          "091301.120000",
          "091303.460000",
          "091305.800000",
          "091308.140000",
          "091310.480000",
          "091312.820000",
          "091315.160000",
          "091317.500000",
          "091319.840000",
          "091322.180000",
          "091324.520000",
          "091326.860000",
          "091329.200000",
          "091331.540000",
          "091333.880000",
          "091336.220000",
          "091338.560000",
          "091340.900000",
          "091343.240000",
          "091345.580000",
          "091347.920000",
          "091350.260000",
          "091352.600000",
          "091354.940000",
          "091357.280000",
          "091359.620000",
          "091401.960000",
          "091404.300000",
          "091406.640000",
          "091408.980000",
          "091411.320000",
          "091413.660000",
          "091416.000000",
          "091418.340000",
          "091420.680000",
          "091423.020000",
          "091425.360000",
          "091427.700000",
          "091430.040000"
        ],
        "ContentTime": [
          "091037.662000",
          "091037.667000",
          "091037.674000",
          "091037.677000",
          "091037.680000",
          "091037.683000",
          "091037.686000",
          "091037.688000",
          "091037.691000",
          "091037.694000",
          "091037.696000",
          "091037.699000",
          "091037.701000",
          "091037.708000",
          "091037.711000",
          "091037.713000",
          "091037.716000",
          "091037.719000",
          "091037.722000",
          "091037.724000",
          "091037.727000",
          "091037.730000",
          "091037.733000",
          "091037.735000",
          "091137.654000",
          "091137.657000",
          "091137.660000",
          "091137.663000",
          "091137.666000",
          "091137.669000",
          "091137.672000",
          "091137.675000",
          "091137.678000",
          "091137.681000",
          "091137.684000",
          "091137.686000",
          "091137.689000",
          "091137.692000",
          "091137.694000",
          "091137.697000",
          "091137.700000",
          "091137.703000",
          "091137.705000",
          "091137.708000",
          "091137.711000",
          "091137.713000",
          "091137.716000",
          "091137.718000",
          "091137.721000",
          "091137.727000",
          "091237.654000",
          "091237.657000",
          "091237.660000",
          "091237.663000",
          "091237.672000",
          "091237.675000",
          "091237.678000",
          "091237.680000",
          "091237.684000",
          "091237.686000",
          "091237.689000",
          "091237.692000",
          "091237.695000",
          "091237.698000",
          "091237.701000",
          "091237.704000",
          "091237.707000",
          "091237.710000",
          "091237.713000",
          "091237.715000",
          "091237.718000",
          "091237.721000",
          "091237.724000",
          "091237.727000",
          "091237.730000",
          "091337.652000",
          "091337.655000",
          "091337.661000",
          "091337.664000",
          "091337.667000",
          "091337.669000",
          "091337.673000",
          "091337.675000",
          "091337.678000",
          "091337.681000",
          "091337.688000",
          "091337.691000",
          "091337.694000",
          "091337.697000",
          "091337.699000",
          "091337.702000",
          "091337.705000",
          "091337.708000",
          "091337.711000",
          "091337.713000",
          "091337.716000",
          "091337.718000",
          "091337.721000",
          "091337.724000",
          "091337.726000",
          "091337.729000",
          "091432.665000",
          "091432.668000",
          "091432.672000",
          "091432.675000",
          "091432.678000",
          "091432.681000",
          "091432.686000",
          "091432.689000",
          "091432.692000",
          "091432.695000",
          "091432.698000",
          "091432.701000",
          "091432.704000",
          "091432.713000",
          "091432.717000",
          "091432.722000",
          "091432.726000",
          "091432.729000",
          "091432.732000",
          "091432.735000",
          "091432.738000",
          "091432.742000",
          "091432.745000"
        ],
        "InstanceCreationTime": [
          "091037.662000",
          "091037.667000",
          "091037.674000",
          "091037.677000",
          "091037.680000",
          "091037.683000",
          "091037.686000",
          "091037.688000",
          "091037.691000",
          "091037.694000",
          "091037.696000",
          "091037.699000",
          "091037.701000",
          "091037.708000",
          "091037.711000",
          "091037.713000",
          "091037.716000",
          "091037.719000",
          "091037.722000",
          "091037.724000",
          "091037.727000",
          "091037.730000",
          "091037.733000",
          "091037.735000",
          "091137.654000",
          "091137.657000",
          "091137.660000",
          "091137.663000",
          "091137.666000",
          "091137.669000",
          "091137.672000",
          "091137.675000",
          "091137.678000",
          "091137.681000",
          "091137.684000",
          "091137.686000",
          "091137.689000",
          "091137.692000",
          "091137.694000",
          "091137.697000",
          "091137.700000",
          "091137.703000",
          "091137.705000",
          "091137.708000",
          "091137.711000",
          "091137.713000",
          "091137.716000",
          "091137.718000",
          "091137.721000",
          "091137.727000",
          "091237.654000",
          "091237.657000",
          "091237.660000",
          "091237.663000",
          "091237.672000",
          "091237.675000",
          "091237.678000",
          "091237.680000",
          "091237.684000",
          "091237.686000",
          "091237.689000",
          "091237.692000",
          "091237.695000",
          "091237.698000",
          "091237.701000",
          "091237.704000",
          "091237.707000",
          "091237.710000",
          "091237.713000",
          "091237.715000",
          "091237.718000",
          "091237.721000",
          "091237.724000",
          "091237.727000",
          "091237.730000",
          "091337.652000",
          "091337.655000",
          "091337.661000",
          "091337.664000",
          "091337.667000",
          "091337.669000",
          "091337.673000",
          "091337.675000",
          "091337.678000",
          "091337.681000",
          "091337.688000",
          "091337.691000",
          "091337.694000",
          "091337.697000",
          "091337.699000",
          "091337.702000",
          "091337.705000",
          "091337.708000",
          "091337.711000",
          "091337.713000",
          "091337.716000",
          "091337.718000",
          "091337.721000",
          "091337.724000",
          "091337.726000",
          "091337.729000",
          "091432.665000",
          "091432.668000",
          "091432.672000",
          "091432.675000",
          "091432.678000",
          "091432.681000",
          "091432.686000",
          "091432.689000",
          "091432.692000",
          "091432.695000",
          "091432.698000",
          "091432.701000",
          "091432.704000",
          "091432.713000",
          "091432.717000",
          "091432.722000",
          "091432.726000",
          "091432.729000",
          "091432.732000",
          "091432.735000",
          "091432.738000",
          "091432.742000",
          "091432.745000"
        ],
        "InstanceNumber": [
          1,
          2,
          3,
          4,
          5,
          6,
          7,
          8,
          9,
          10,
          11,
          12,
          13,
          14,
          15,
          16,
          17,
          18,
          19,
          20,
          21,
          22,
          23,
          24,
          25,
          26,
          27,
          28,
          29,
          30,
          31,
          32,
          33,
          34,
          35,
          36,
          37,
          38,
          39,
          40,
          41,
          42,
          43,
          44,
          45,
          46,
          47,
          48,
          49,
          50,
          51,
          52,
          53,
          54,
          55,
          56,
          57,
          58,
          59,
          60,
          61,
          62,
          63,
          64,
          65,
          66,
          67,
          68,
          69,
          70,
          71,
          72,
          73,
          74,
          75,
          76,
          77,
          78,
          79,
          80,
          81,
          82,
          83,
          84,
          85,
          86,
          87,
          88,
          89,
          90,
          91,
          92,
          93,
          94,
          95,
          96,
          97,
          98,
          99,
          100,
          101,
          102,
          103,
          104,
          105,
          106,
          107,
          108,
          109,
          110,
          111,
          112,
          113,
          114,
          115,
          116,
          117,
          118,
          119,
          120,
          121,
          122,
          123,
          124
        ],
        "LargestImagePixelValue": [
          2974,
          3044,
          2913,
          2946,
          3110,
          3274,
          3286,
          3080,
          3018,
          3004,
          2920,
          3153,
          2849,
          2799,
          3202,
          2921,
          2991,
          2757,
          2787,
          3178,
          2966,
          2749,
          3337,
          2792,
          3029,
          3185,
          2921,
          2805,
          2709,
          2925,
          3003,
          2395,
          2970,
          2934,
          2928,
          2894,
          2830,
          2879,
          3065,
          2955,
          2938,
          2901,
          2987,
          2816,
          3058,
          2824,
          3050,
          2916,
          3004,
          3003,
          2828,
          2925,
          3139,
          3498,
          3072,
          3103,
          2818,
          2814,
          2877,
          2706,
          2983,
          3071,
          3240,
          3107,
          1884,
          2160,
          2721,
          3458,
          2912,
          2333,
          2867,
          2894,
          2810,
          3003,
          2909,
          2934,
          2788,
          2281,
          3201,
          3033,
          3425,
          3091,
          3116,
          3031,
          2688,
          2574,
          2891,
          3299,
          3169,
          3235,
          3073,
          2759,
          2854,
          2740,
          3034,
          2887,
          2989,
          2542,
          3051,
          3008,
          3046,
          3425,
          3138,
          3116,
          2894,
          2720,
          2736,
          2984,
          3421,
          3221,
          2950,
          3105,
          3032,
          2945,
          2961,
          2797,
          3135,
          3100,
          2183,
          3269,
          2069,
          3131,
          3187,
          3440
        ],
        "WindowCenter": [
          850.0,
          847.0,
          848.0,
          850.0,
          851.0,
          848.0,
          845.0,
          844.0,
          844.0,
          846.0,
          844.0,
          843.0,
          843.0,
          845.0,
          844.0,
          845.0,
          843.0,
          846.0,
          847.0,
          849.0,
          848.0,
          847.0,
          846.0,
          845.0,
          845.0,
          845.0,
          841.0,
          845.0,
          843.0,
          845.0,
          844.0,
          849.0,
          848.0,
          848.0,
          847.0,
          848.0,
          846.0,
          850.0,
          848.0,
          849.0,
          848.0,
          850.0,
          848.0,
          850.0,
          847.0,
          848.0,
          846.0,
          846.0,
          847.0,
          847.0,
          848.0,
          847.0,
          846.0,
          847.0,
          842.0,
          845.0,
          844.0,
          846.0,
          846.0,
          850.0,
          848.0,
          850.0,
          845.0,
          846.0,
          850.0,
          843.0,
          844.0,
          840.0,
          836.0,
          837.0,
          839.0,
          837.0,
          836.0,
          842.0,
          839.0,
          841.0,
          843.0,
          844.0,
          847.0,
          846.0,
          847.0,
          848.0,
          843.0,
          845.0,
          845.0,
          851.0,
          851.0,
          852.0,
          850.0,
          847.0,
          846.0,
          851.0,
          847.0,
          849.0,
          850.0,
          852.0,
          849.0,
          853.0,
          850.0,
          852.0,
          850.0,
          850.0,
          845.0,
          846.0,
          845.0,
          848.0,
          851.0,
          851.0,
          850.0,
          852.0,
          852.0,
          851.0,
          850.0,
          849.0,
          851.0,
          851.0,
          852.0,
          853.0,
          850.0,
          847.0,
          853.0,
          847.0,
          843.0,
          846.0
        ],
        "WindowWidth": [
          1803.0,
          1797.0,
          1801.0,
          1803.0,
          1806.0,
          1800.0,
          1791.0,
          1788.0,
          1791.0,
          1792.0,
          1787.0,
          1783.0,
          1785.0,
          1793.0,
          1791.0,
          1793.0,
          1786.0,
          1797.0,
          1797.0,
          1801.0,
          1799.0,
          1796.0,
          1793.0,
          1795.0,
          1794.0,
          1791.0,
          1781.0,
          1795.0,
          1788.0,
          1791.0,
          1789.0,
          1804.0,
          1802.0,
          1799.0,
          1792.0,
          1799.0,
          1793.0,
          1804.0,
          1801.0,
          1801.0,
          1799.0,
          1805.0,
          1801.0,
          1803.0,
          1795.0,
          1798.0,
          1794.0,
          1792.0,
          1798.0,
          1796.0,
          1796.0,
          1796.0,
          1794.0,
          1797.0,
          1785.0,
          1791.0,
          1789.0,
          1793.0,
          1796.0,
          1804.0,
          1802.0,
          1804.0,
          1791.0,
          1796.0,
          1796.0,
          1793.0,
          1792.0,
          1776.0,
          1763.0,
          1770.0,
          1777.0,
          1768.0,
          1770.0,
          1783.0,
          1777.0,
          1781.0,
          1787.0,
          1788.0,
          1799.0,
          1797.0,
          1800.0,
          1798.0,
          1788.0,
          1792.0,
          1789.0,
          1809.0,
          1807.0,
          1809.0,
          1804.0,
          1796.0,
          1793.0,
          1808.0,
          1797.0,
          1799.0,
          1803.0,
          1811.0,
          1802.0,
          1808.0,
          1812.0,
          1809.0,
          1802.0,
          1809.0,
          1793.0,
          1793.0,
          1790.0,
          1800.0,
          1805.0,
          1808.0,
          1806.0,
          1810.0,
          1806.0,
          1807.0,
          1804.0,
          1803.0,
          1807.0,
          1807.0,
          1810.0,
          1813.0,
          1800.0,
          1811.0,
          1808.0,
          1796.0,
          1792.0,
          1789.0
        ]
      },
      "slices": {}
    }
  },
  "dummy_trs": 0,
  "dvars_nstd": 54.84233694910568,
  "dvars_std": 1.3597508079674798,
  "dvars_vstd": 1.1051700227642278,
  "efc": 0.591039094047884,
  "fber": 1656.316162109375,
  "fd_mean": 0.9444305622862287,
  "fd_num": 110,
  "fd_perc": 88.70967741935483,
  "fwhm_avg": 1.631864148867616,
  "fwhm_x": 1.5236266666666667,
  "fwhm_y": 1.82449,
  "fwhm_z": 1.5474757799361805,
  "gcor": 0.0636174,
  "gsr_x": -0.010390729643404484,
  "gsr_y": 0.04195889085531235,
  "provenance": {
    "md5sum": "fb4aedbb6518279da9f768b7754cc723",
    "settings": {
      "fd_thres": 0.2,
      "testing": false
    },
    "software": "mriqc",
    "version": "22.0.1",
    "webapi_port": null,
    "webapi_url": "https://mriqc.nimh.nih.gov/api/v1"
  },
  "size_t": 124,
  "size_x": 64,
  "size_y": 64,
  "size_z": 34,
  "snr": 7.252313643354414,
  "spacing_tr": 2.3399999141693115,
  "spacing_x": 3.0,
  "spacing_y": 3.0,
  "spacing_z": 3.299999952316284,
  "summary_bg_k": 73.13311126796405,
  "summary_bg_mad": 9.636914420286413,
  "summary_bg_mean": 38.17878723144531,
  "summary_bg_median": 23.40322494506836,
  "summary_bg_n": 68844.0,
  "summary_bg_p05": 13.129032135009766,
  "summary_bg_p95": 109.62418975830073,
  "summary_bg_stdv": 53.447044372558594,
  "summary_fg_k": 2.298467192474484,
  "summary_fg_mad": 134.47439207893936,
  "summary_fg_mean": 981.5377197265625,
  "summary_fg_median": 979.3386840820312,
  "summary_fg_n": 37127.0,
  "summary_fg_p05": 785.5354675292969,
  "summary_fg_p95": 1190.6854248046875,
  "summary_fg_stdv": 135.03628540039062,
  "tsnr": 36.392443652730435
}