{
  "aor": 0.015333846153846155,
  "aqi": 0.05981063769230769,
  "bids_meta": {
    "AcquisitionMatrixPE": 64,
    "AcquisitionNumber": 1,
    "AcquisitionTime": "09:01:54.110000",
    "BandwidthPerPixelPhaseEncode": 24.038,
    "BaseResolution": 64,
    "BodyPartExamined": "HEAD",
    "ConsistencyInfo": "N4_VD13A_LATEST_20120616",
    "ConversionSoftware": "dcm2niix",
    "ConversionSoftwareVersion": "v1.0.20181125  GCC6.3.0",
    "DerivedVendorReportedEchoSpacing": 0.000650012,
    "DeviceSerialNumber": "45250",
    "DwellTime": 4.6e-06,
    "EchoTime": 0.033,
    "EchoTrainLength": 64,
    "EffectiveEchoSpacing": 0.000650012,
    "FlipAngle": 90,
    "ImageOrientationPatientDICOM": [
      0.999919,
      -0.00659013,
      -0.010861,
      0.00349034,
      0.96454,
      -0.263914
    ],
    "ImageType": [
      "ORIGINAL",
      "PRIMARY",
      "M",
      "ND",
      "NORM",
      "MOSAIC"
    ],
    "ImagingFrequency": 123.22,
    "InPlanePhaseEncodingDirectionDICOM": "COL",
    "InstitutionAddress": "Kopernikusstr._26_Graz_Graz_AT_8010",
    "InstitutionName": "KFU",
    "InstitutionalDepartmentName": "Department",
    "MRAcquisitionType": "2D",
    "MagneticFieldStrength": 3,
    "Manufacturer": "Siemens",
    "ManufacturersModelName": "Skyra",
    "Modality": "MR",
    "PartialFourier": 1,
    "PatientPosition": "HFS",
    "PercentPhaseFOV": 100,
    "PhaseEncodingDirection": "j-",
    "PhaseEncodingSteps": 64,
    "PhaseResolution": 1,
    "PixelBandwidth": 1700,
    "ProcedureStepDescription": "KFU_Entw-Psy",
    "ProtocolName": "fMRI_2",
    "PulseSequenceDetails": "%SiemensSeq%_ep2d_pace",
    "ReceiveCoilActiveElements": "HE1-4",
    "ReceiveCoilName": "HeadNeck_20",
    "ReconMatrixPE": 64,
    "RepetitionTime": 2.34,
    "SAR": 0.163921,
    "ScanOptions": "FS",
    "ScanningSequence": "EP",
    "SequenceName": "_epfid2d1_64",
    "SequenceVariant": "SK",
    "SeriesDescription": "fMRI_2",
    "SeriesNumber": 5,
    "ShimSetting": [
      -1581,
      -3668,
      -4287,
      332,
      831,
      280,
      250,
      -279
    ],
    "SliceThickness": 3,
    "SliceTiming": [
      2.2525,
      2.185,
      2.115,
      2.0475,
      1.98,
      1.91,
      1.8425,
      1.775,
      1.705,
      1.6375,
      1.57,
      1.5025,
      1.4325,
      1.365,
      1.2975,
      1.2275,
      1.16,
      1.0925,
      1.025,
      0.955,
      0.8875,
      0.82,
      0.75,
      0.6825,
      0.615,
      0.5475,
      0.4775,
      0.41,
      0.3425,
      0.2725,
      0.205,
      0.1375,
      0.0675,
      0
    ],
    "SoftwareVersions": "syngo_MR_D13",
    "SpacingBetweenSlices": 3.3,
    "StationName": "FBMTMR1",
    "TaskName": "read",
    "TotalReadoutTime": 0.0409508,
    "TxRefAmp": 327.431,
    "dataset": "ds003126",
    "dcmmeta_affine": [
      [
        -2.999758005142212,
        0.010471031069755554,
        -0.040309928357601166,
        96.52511596679688
      ],
      [
        0.01977037824690342,
        2.8936197757720947,
        -0.8707202672958374,
        -105.54171752929688
      ],
      [
        -0.03258311003446579,
        0.7917414903640747,
        3.1828010082244873,
        -31.935161590576172
      ],
      [
        0.0,
        0.0,
        0.0,
        1.0
      ]
    ],
    "dcmmeta_reorient_transform": [
      [
        0.0,
        -1.0,
        0.0,
        63.0
      ],
      [
        1.0,
        0.0,
        0.0,
        0.0
      ],
      [
        0.0,
        0.0,
        1.0,
        0.0
      ],
      [
        0.0,
        0.0,
        0.0,
        1.0
      ]
    ],
    "dcmmeta_shape": [
      64,
      64,
      34,
      130
    ],
    "dcmmeta_slice_dim": 2,
    "dcmmeta_version": 0.6,
    "global": {
      "const": {
        "AcquisitionMatrix": [
          64,
          0,
          0,
          64
        ],
        "AngioFlag": "N",
        "BitsAllocated": 16,
        "BitsStored": 12,
        "BodyPartExamined": "HEAD",
        "Columns": 384,
        "EchoNumbers": 1,
        "EchoTime": 33.0,
        "EchoTrainLength": 64,
        "FlipAngle": 90.0,
        "HighBit": 11,
        "ImageOrientationPatient": [
          0.99991930080021,
          -0.0065901259268,
          -0.0108610371274,
          0.00349034358683,
          0.9645399487592,
          -0.2639138206863
        ],
        "ImagePositionPatient": [
          -578.82142365277,
          -536.57224694588,
          149.8364830711
        ],
        "ImageType": [
          "ORIGINAL",
          "PRIMARY",
          "M",
          "ND",
          "NORM",
          "MOSAIC"
        ],
        "ImagedNucleus": "1H",
        "ImagingFrequency": 123.219998,
        "InPlanePhaseEncodingDirection": "COL",
        "MRAcquisitionType": "2D",
        "MagneticFieldStrength": 3.0,
        "Manufacturer": "SIEMENS",
        "ManufacturerModelName": "Skyra",
        "Modality": "MR",
        "NumberOfAverages": 1.0,
        "NumberOfPhaseEncodingSteps": 64,
        "PercentPhaseFieldOfView": 100.0,
        "PercentSampling": 100.0,
        "PerformedProcedureStepStartTime": "084943.977000",
        "PhotometricInterpretation": "MONOCHROME2",
        "PixelBandwidth": 1700.0,
        "PixelRepresentation": 0,
        "PixelSpacing": [
          3.0,
          3.0
        ],
        "ProtocolName": "fMRI_2",
        "RepetitionTime": 2340.0,
        "Rows": 384,
        "SAR": 0.16392087945526,
        "SamplesPerPixel": 1,
        "ScanOptions": "FS",
        "ScanningSequence": "EP",
        "SequenceName": "*epfid2d1_64",
        "SequenceVariant": "SK",
        "SeriesDescription": "fMRI_2",
        "SeriesNumber": 5,
        "SeriesTime": "090257.656000",
        "SliceLocation": -4.13238461302,
        "SliceThickness": 3.0,
        "SmallestImagePixelValue": 0,
        "SoftwareVersions": "syngo MR D13",
        "SpacingBetweenSlices": 3.3000000419006,
        "SpecificCharacterSet": "ISO_IR 100",
        "StudyID": "1",
        "StudyTime": "084943.927000",
        "TransmitCoilName": "Body",
        "VariableFlipAngleFlag": "N",
        "WindowCenterWidthExplanation": "Algo1",
        "dBdt": 0.0
      },
      "slices": {}
    },
    "modality": "bold",
    "run_id": 2,
    "session_id": "2",
    "subject_id": "047EPKL012073",
    "task_id": "read",
    "time": {
      "samples": {
        "AcquisitionNumber": [
          1,
          2,
          3,
          4,
          5,
          6,
          7,
          8,
          9,
          10,
          11,
          12,
          13,
          14,
          15,
          16,
          17,
          18,
          19,
          20,
          21,
          22,
          23,
          24,
          25,
          26,
          27,
          28,
          29,
          30,
          31,
          32,
          33,
          34,
          35,
          36,
          37,
          38,
          39,
          40,
          41,
          42,
          43,
          44,
          45,
          46,
          47,
          48,
          49,
          50,
          51,
          52,
          53,
          54,
          55,
          56,
          57,
          58,
          59,
          60,
          61,
          62,
          63,
          64,
          65,
          66,
          67,
          68,
          69,
          70,
          71,
          72,
          73,
          74,
          75,
          76,
          77,
          78,
          79,
          80,
          81,
          82,
          83,
          84,
          85,
          86,
          87,
          88,
          89,
          90,
          91,
          92,
          93,
          94,
          95,
          96,
          97,
          98,
          99,
          100,
          101,
          102,
          103,
          104,
          105,
          106,
          107,
          108,
          109,
          110,
          111,
          112,
          113,
          114,
          115,
          116,
          117,
          118,
          119,
          120,
          121,
          122,
          123,
          124,
          125,
          126,
          127,
          128,
          129,
          130
        ],
        "AcquisitionTime": [
          "090154.110000",
          "090156.450000",
          "090158.790000",
          "090201.130000",
          "090203.470000",
          "090205.810000",
          "090208.150000",
          "090210.490000",
          "090212.830000",
          "090215.170000",
          "090217.510000",
          "090219.850000",
          "090222.190000",
          "090224.530000",
          "090226.870000",
          "090229.210000",
          "090231.550000",
          "090233.890000",
          "090236.230000",
          "090238.570000",
          "090240.910000",
          "090243.250000",
          "090245.590000",
          "090247.930000",
          "090250.270000",
          "090252.610000",
          "090254.950000",
          "090257.290000",
          "090259.630000",
          "090301.970000",
          "090304.310000",
          "090306.650000",
          "090308.990000",
          "090311.330000",
          "090313.670000",
          "090316.010000",
          "090318.350000",
          "090320.690000",
          "090323.030000",
          "090325.370000",
          "090327.710000",
          "090330.050000",
          "090332.390000",
          "090334.730000",
          "090337.070000",
          "090339.410000",
          "090341.750000",
          "090344.090000",
          "090346.430000",
          "090348.770000",
          "090351.110000",
          "090353.450000",
          "090355.790000",
          "090358.130000",
          "090400.470000",
          "090402.810000",
          "090405.150000",
          "090407.490000",
          "090409.830000",
          "090412.170000",
          "090414.510000",
          "090416.850000",
          "090419.190000",
          "090421.530000",
          "090423.870000",
          "090426.210000",
          "090428.550000",
          "090430.890000",
          "090433.230000",
          "090435.570000",
          "090437.910000",
          "090440.250000",
          "090442.590000",
          "090444.930000",
          "090447.270000",
          "090449.610000",
          "090451.950000",
          "090454.290000",
          "090456.630000",
          "090458.970000",
          "090501.310000",
          "090503.650000",
          "090505.990000",
          "090508.330000",
          "090510.670000",
          "090513.010000",
          "090515.350000",
          "090517.690000",
          "090520.030000",
          "090522.370000",
          "090524.710000",
          "090527.050000",
          "090529.390000",
          "090531.730000",
          "090534.070000",
          "090536.410000",
          "090538.750000",
          "090541.090000",
          "090543.430000",
          "090545.770000",
          "090548.110000",
          "090550.450000",
          "090552.790000",
          "090555.130000",
          "090557.470000",
          "090559.810000",
          "090602.150000",
          "090604.490000",
          "090606.830000",
          "090609.170000",
          "090611.510000",
          "090613.850000",
          "090616.190000",
          "090618.530000",
          "090620.870000",
          "090623.210000",
          "090625.550000",
          "090627.890000",
          "090630.230000",
          "090632.570000",
          "090634.910000",
          "090637.250000",
          "090639.590000",
          "090641.930000",
          "090644.270000",
          "090646.610000",
          "090648.950000",
          "090651.290000",
          "090653.630000",
          "090655.970000"
        ],
        "ContentTime": [
          "090257.660000",
          "090257.664000",
          "090257.671000",
          "090257.674000",
          "090257.676000",
          "090257.679000",
          "090257.682000",
          "090257.685000",
          "090257.687000",
          "090257.690000",
          "090257.693000",
          "090257.695000",
          "090257.698000",
          "090257.701000",
          "090257.704000",
          "090257.707000",
          "090257.710000",
          "090257.713000",
          "090257.716000",
          "090257.719000",
          "090257.722000",
          "090257.724000",
          "090257.734000",
          "090257.737000",
          "090257.740000",
          "090257.742000",
          "090257.746000",
          "090357.654000",
          "090357.657000",
          "090357.665000",
          "090357.668000",
          "090357.671000",
          "090357.673000",
          "090357.676000",
          "090357.679000",
          "090357.681000",
          "090357.684000",
          "090357.687000",
          "090357.690000",
          "090357.692000",
          "090357.695000",
          "090357.698000",
          "090357.700000",
          "090357.703000",
          "090357.705000",
          "090357.708000",
          "090357.711000",
          "090357.713000",
          "090357.716000",
          "090357.719000",
          "090357.721000",
          "090357.724000",
          "090357.727000",
          "090457.653000",
          "090457.656000",
          "090457.659000",
          "090457.662000",
          "090457.665000",
          "090457.668000",
          "090457.671000",
          "090457.676000",
          "090457.678000",
          "090457.681000",
          "090457.684000",
          "090457.687000",
          "090457.690000",
          "090457.693000",
          "090457.696000",
          "090457.699000",
          "090457.702000",
          "090457.705000",
          "090457.707000",
          "090457.710000",
          "090457.713000",
          "090457.715000",
          "090457.718000",
          "090457.721000",
          "090457.723000",
          "090457.726000",
          "090557.654000",
          "090557.662000",
          "090557.665000",
          "090557.673000",
          "090557.675000",
          "090557.679000",
          "090557.681000",
          "090557.684000",
          "090557.687000",
          "090557.691000",
          "090557.693000",
          "090557.696000",
          "090557.699000",
          "090557.702000",
          "090557.706000",
          "090557.709000",
          "090557.712000",
          "090557.715000",
          "090557.718000",
          "090557.720000",
          "090557.723000",
          "090557.726000",
          "090557.729000",
          "090557.732000",
          "090557.735000",
          "090617.653000",
          "090617.656000",
          "090617.659000",
          "090617.668000",
          "090617.671000",
          "090617.673000",
          "090617.676000",
          "090617.679000",
          "090617.682000",
          "090656.853000",
          "090656.857000",
          "090656.859000",
          "090656.862000",
          "090656.865000",
          "090656.871000",
          "090656.874000",
          "090656.877000",
          "090656.880000",
          "090656.884000",
          "090656.886000",
          "090656.889000",
          "090656.892000",
          "090656.895000",
          "090656.898000",
          "090656.900000",
          "090656.903000"
        ],
        "InstanceCreationTime": [
          "090257.660000",
          "090257.664000",
          "090257.671000",
          "090257.674000",
          "090257.676000",
          "090257.679000",
          "090257.682000",
          "090257.685000",
          "090257.687000",
          "090257.690000",
          "090257.693000",
          "090257.695000",
          "090257.698000",
          "090257.701000",
          "090257.704000",
          "090257.707000",
          "090257.710000",
          "090257.713000",
          "090257.716000",
          "090257.719000",
          "090257.722000",
          "090257.724000",
          "090257.734000",
          "090257.737000",
          "090257.740000",
          "090257.742000",
          "090257.746000",
          "090357.654000",
          "090357.657000",
          "090357.665000",
          "090357.668000",
          "090357.671000",
          "090357.673000",
          "090357.676000",
          "090357.679000",
          "090357.681000",
          "090357.684000",
          "090357.687000",
          "090357.690000",
          "090357.692000",
          "090357.695000",
          "090357.698000",
          "090357.700000",
          "090357.703000",
          "090357.705000",
          "090357.708000",
          "090357.711000",
          "090357.713000",
          "090357.716000",
          "090357.719000",
          "090357.721000",
          "090357.724000",
          "090357.727000",
          "090457.653000",
          "090457.656000",
          "090457.659000",
          "090457.662000",
          "090457.665000",
          "090457.668000",
          "090457.671000",
          "090457.676000",
          "090457.678000",
          "090457.681000",
          "090457.684000",
          "090457.687000",
          "090457.690000",
          "090457.693000",
          "090457.696000",
          "090457.699000",
          "090457.702000",
          "090457.705000",
          "090457.707000",
          "090457.710000",
          "090457.713000",
          "090457.715000",
          "090457.718000",
          "090457.721000",
          "090457.723000",
          "090457.726000",
          "090557.654000",
          "090557.662000",
          "090557.665000",
          "090557.673000",
          "090557.675000",
          "090557.679000",
          "090557.681000",
          "090557.684000",
          "090557.687000",
          "090557.691000",
          "090557.693000",
          "090557.696000",
          "090557.699000",
          "090557.702000",
          "090557.706000",
          "090557.709000",
          "090557.712000",
          "090557.715000",
          "090557.718000",
          "090557.720000",
          "090557.723000",
          "090557.726000",
          "090557.729000",
          "090557.732000",
          "090557.735000",
          "090617.653000",
          "090617.656000",
          "090617.659000",
          "090617.668000",
          "090617.671000",
          "090617.673000",
          "090617.676000",
          "090617.679000",
          "090617.682000",
          "090656.853000",
          "090656.857000",
          "090656.859000",
          "090656.862000",
          "090656.865000",
          "090656.871000",
          "090656.874000",
          "090656.877000",
          "090656.880000",
          "090656.884000",
          "090656.886000",
          "090656.889000",
          "090656.892000",
          "090656.895000",
          "090656.898000",
          "090656.900000",
          "090656.903000"
        ],
        "InstanceNumber": [
          1,
          2,
          3,
          4,
          5,
          6,
          7,
          8,
          9,
          10,
          11,
          12,
          13,
          14,
          15,
          16,
          17,
          18,
          19,
          20,
          21,
          22,
          23,
          24,
          25,
          26,
          27,
          28,
          29,
          30,
          31,
          32,
          33,
          34,
          35,
          36,
          37,
          38,
          39,
          40,
          41,
          42,
          43,
          44,
          45,
          46,
          47,
          48,
          49,
          50,
          51,
          52,
          53,
          54,
          55,
          56,
          57,
          58,
          59,
          60,
          61,
          62,
          63,
          64,
          65,
          66,
          67,
          68,
          69,
          70,
          71,
          72,
          73,
          74,
          75,
          76,
          77,
          78,
          79,
          80,
          81,
          82,
          83,
          84,
          85,
          86,
          87,
          88,
          89,
          90,
          91,
          92,
          93,
          94,
          95,
          96,
          97,
          98,
          99,
          100,
          101,
          102,
          103,
          104,
          105,
          106,
          107,
          108,
          109,
          110,
          111,
          112,
          113,
          114,
          115,
          116,
          117,
          118,
          119,
          120,
          121,
          122,
          123,
          124,
          125,
          126,
          127,
          128,
          129,
          130
        ],
        "LargestImagePixelValue": [
          2442,
          1883,
          2284,
          2571,
          2257,
          2092,
          2114,
          2325,
          2113,
          2008,
          2278,
          2202,
          1981,
          2313,
          2199,
          2192,
          1913,
          2218,
          2170,
          2469,
          2850,
          2164,
          2051,
          1951,
          2037,
          2150,
          1979,
          2118,
          2144,
          2551,
          2977,
          2519,
          2641,
          2447,
          1964,
          3160,
          2577,
          1972,
          2035,
          2043,
          1828,
          1924,
          2001,
          2314,
          2692,
          2764,
          2542,
          2774,
          2035,
          1868,
          2246,
          2354,
          1971,
          2401,
          2963,
          2533,
          2783,
          2258,
          1892,
          2010,
          2157,
          2910,
          2861,
          2467,
          2048,
          1991,
          2012,
          1988,
          2308,
          2655,
          2310,
          1995,
          2109,
          1937,
          2304,
          1994,
          2049,
          2204,
          2840,
          2753,
          2001,
          2064,
          2481,
          3179,
          3492,
          2429,
          2112,
          2011,
          1980,
          2191,
          2168,
          2125,
          2425,
          2838,
          2815,
          2045,
          2207,
          2377,
          1895,
          1927,
          2112,
          2869,
          2187,
          1943,
          2219,
          2900,
          2257,
          2049,
          2186,
          2565,
          2881,
          2141,
          2740,
          2441,
          1907,
          1958,
          2560,
          3007,
          2946,
          2454,
          1905,
          2171,
          2929,
          2681,
          2110,
          2063,
          1896,
          2101,
          2158,
          2248
        ],
        "WindowCenter": [
          833.0,
          833.0,
          837.0,
          831.0,
          834.0,
          833.0,
          836.0,
          841.0,
          839.0,
          840.0,
          839.0,
          838.0,
          837.0,
          837.0,
          837.0,
          838.0,
          838.0,
          839.0,
          835.0,
          837.0,
          840.0,
          836.0,
          833.0,
          836.0,
          837.0,
          839.0,
          837.0,
          840.0,
          835.0,
          842.0,
          840.0,
          831.0,
          826.0,
          829.0,
          826.0,
          827.0,
          842.0,
          849.0,
          834.0,
          840.0,
          836.0,
          840.0,
          839.0,
          843.0,
          841.0,
          836.0,
          833.0,
          837.0,
          835.0,
          837.0,
          838.0,
          839.0,
          845.0,
          836.0,
          845.0,
          839.0,
          832.0,
          837.0,
          834.0,
          833.0,
          832.0,
          833.0,
          825.0,
          827.0,
          828.0,
          833.0,
          832.0,
          832.0,
          837.0,
          836.0,
          836.0,
          841.0,
          839.0,
          841.0,
          843.0,
          838.0,
          847.0,
          844.0,
          844.0,
          838.0,
          837.0,
          842.0,
          841.0,
          840.0,
          834.0,
          836.0,
          832.0,
          833.0,
          837.0,
          839.0,
          842.0,
          844.0,
          836.0,
          843.0,
          840.0,
          840.0,
          839.0,
          841.0,
          842.0,
          844.0,
          844.0,
          844.0,
          840.0,
          844.0,
          842.0,
          843.0,
          844.0,
          846.0,
          844.0,
          842.0,
          843.0,
          842.0,
          843.0,
          839.0,
          841.0,
          837.0,
          846.0,
          838.0,
          831.0,
          836.0,
          831.0,
          830.0,
          831.0,
          832.0,
          831.0,
          837.0,
          836.0,
          837.0,
          840.0,
          840.0
        ],
        "WindowWidth": [
          1765.0,
          1763.0,
          1771.0,
          1764.0,
          1768.0,
          1761.0,
          1771.0,
          1786.0,
          1779.0,
          1782.0,
          1778.0,
          1777.0,
          1777.0,
          1777.0,
          1774.0,
          1778.0,
          1777.0,
          1780.0,
          1777.0,
          1781.0,
          1784.0,
          1772.0,
          1766.0,
          1773.0,
          1774.0,
          1779.0,
          1776.0,
          1782.0,
          1777.0,
          1791.0,
          1784.0,
          1757.0,
          1750.0,
          1755.0,
          1746.0,
          1762.0,
          1782.0,
          1804.0,
          1784.0,
          1788.0,
          1777.0,
          1785.0,
          1785.0,
          1792.0,
          1785.0,
          1772.0,
          1765.0,
          1777.0,
          1771.0,
          1771.0,
          1782.0,
          1781.0,
          1793.0,
          1786.0,
          1802.0,
          1776.0,
          1760.0,
          1776.0,
          1764.0,
          1770.0,
          1769.0,
          1763.0,
          1746.0,
          1747.0,
          1745.0,
          1767.0,
          1764.0,
          1761.0,
          1774.0,
          1772.0,
          1773.0,
          1784.0,
          1782.0,
          1787.0,
          1794.0,
          1780.0,
          1803.0,
          1799.0,
          1798.0,
          1776.0,
          1769.0,
          1796.0,
          1792.0,
          1779.0,
          1763.0,
          1774.0,
          1763.0,
          1769.0,
          1777.0,
          1781.0,
          1790.0,
          1789.0,
          1779.0,
          1793.0,
          1777.0,
          1787.0,
          1782.0,
          1787.0,
          1789.0,
          1795.0,
          1799.0,
          1792.0,
          1781.0,
          1793.0,
          1788.0,
          1793.0,
          1792.0,
          1797.0,
          1794.0,
          1791.0,
          1792.0,
          1788.0,
          1791.0,
          1780.0,
          1781.0,
          1786.0,
          1801.0,
          1777.0,
          1757.0,
          1772.0,
          1762.0,
          1758.0,
          1768.0,
          1759.0,
          1760.0,
          1777.0,
          1775.0,
          1778.0,
          1785.0,
          1782.0
        ]
      },
      "slices": {}
    }
  },
  "dummy_trs": 0,
  "dvars_nstd": 75.29763269038757,
  "dvars_std": 1.4011477236434111,
  "dvars_vstd": 1.141974343255814,
  "efc": 0.5846255449854331,
  "fber": 1784.066162109375,
  "fd_mean": 1.6718596890852084,
  "fd_num": 125,
  "fd_perc": 96.15384615384616,
  "fwhm_avg": 1.652455664126963,
  "fwhm_x": 1.5515966666666667,
  "fwhm_y": 1.8359066666666666,
  "fwhm_z": 1.5698636590475554,
  "gcor": 0.0574565,
  "gsr_x": -0.003857195610180497,
  "gsr_y": 0.037929657846689224,
  "provenance": {
    "md5sum": "3dcc8877dbd4d90756f46319abb952ea",
    "settings": {
      "fd_thres": 0.2,
      "testing": false
    },
    "software": "mriqc",
    "version": "22.0.1",
    "webapi_port": null,
    "webapi_url": "https://mriqc.nimh.nih.gov/api/v1"
  },
  "size_t": 130,
  "size_x": 64,
  "size_y": 64,
  "size_z": 34,
  "snr": 7.4211285194868175,
  "spacing_tr": 2.3399999141693115,
  "spacing_x": 3.0,
  "spacing_y": 3.0,
  "spacing_z": 3.299999952316284,
  "summary_bg_k": 52.66116597067009,
  "summary_bg_mad": 9.123704002299563,
  "summary_bg_mean": 33.93126678466797,
  "summary_bg_median": 22.36153793334961,
  "summary_bg_n": 69677.0,
  "summary_bg_p05": 12.561538696289062,
  "summary_bg_p95": 93.47999877929684,
  "summary_bg_stdv": 40.898990631103516,
  "summary_fg_k": 2.0289120156658083,
  "summary_fg_mad": 131.95168793785663,
  "summary_fg_mean": 972.0347900390625,
  "summary_fg_median": 970.7461547851562,
  "summary_fg_n": 36910.0,
  "summary_fg_p05": 778.04306640625,
  "summary_fg_p95": 1173.3296569824217,
  "summary_fg_stdv": 130.80665588378906,
  "tsnr": 26.160392456222326
}