{
  "aor": 0.016174108527131786,
  "aqi": 0.029790004883720928,
  "bids_meta": {
    "AcquisitionMatrixPE": 64,
    "AcquisitionNumber": 1,
    "AcquisitionTime": "10:40:2.052500",
    "BandwidthPerPixelPhaseEncode": 24.038,
    "BaseResolution": 64,
    "BodyPartExamined": "HEAD",
    "ConsistencyInfo": "N4_VD13A_LATEST_20120616",
    "ConversionSoftware": "dcm2niix",
    "ConversionSoftwareVersion": "v1.0.20181125  GCC6.3.0",
    "DerivedVendorReportedEchoSpacing": 0.000650012,
    "DeviceSerialNumber": "45250",
    "DwellTime": 4.6e-06,
    "EchoTime": 0.033,
    "EchoTrainLength": 64,
    "EffectiveEchoSpacing": 0.000650012,
    "FlipAngle": 90,
    "ImageOrientationPatientDICOM": [
      0.999919,
      -0.0044798,
      -0.011888,
      0.00349038,
      0.996628,
      -0.0819818
    ],
    "ImageType": [
      "ORIGINAL",
      "PRIMARY",
      "M",
      "ND",
      "NORM",
      "MOSAIC"
    ],
    "ImagingFrequency": 123.22,
    "InPlanePhaseEncodingDirectionDICOM": "COL",
    "InstitutionAddress": "Kopernikusstr._26_Graz_Graz_AT_8010",
    "InstitutionName": "KFU",
    "InstitutionalDepartmentName": "Department",
    "MRAcquisitionType": "2D",
    "MagneticFieldStrength": 3,
    "Manufacturer": "Siemens",
    "ManufacturersModelName": "Skyra",
    "Modality": "MR",
    "PartialFourier": 1,
    "PatientPosition": "HFS",
    "PercentPhaseFOV": 100,
    "PhaseEncodingDirection": "j-",
    "PhaseEncodingSteps": 64,
    "PhaseResolution": 1,
    "PixelBandwidth": 1700,
    "ProcedureStepDescription": "KFU_Entw-Psy",
    "ProtocolName": "fMRI_3",
    "PulseSequenceDetails": "%SiemensSeq%_ep2d_pace",
    "ReceiveCoilActiveElements": "HE1-4",
    "ReceiveCoilName": "HeadNeck_20",
    "ReconMatrixPE": 64,
    "RepetitionTime": 2.34,
    "SAR": 0.188579,
    "ScanOptions": "FS",
    "ScanningSequence": "EP",
    "SequenceName": "_epfid2d1_64",
    "SequenceVariant": "SK",
    "SeriesDescription": "fMRI_3",
    "SeriesNumber": 8,
    "ShimSetting": [
      -1541,
      -3876,
      -4310,
      492,
      653,
      4,
      440,
      -2
    ],
    "SliceThickness": 3,
    "SliceTiming": [
      2.2525,
      2.185,
      2.115,
      2.0475,
      1.98,
      1.91,
      1.8425,
      1.775,
      1.7075,
      1.6375,
      1.57,
      1.5025,
      1.4325,
      1.365,
      1.2975,
      1.2275,
      1.16,
      1.0925,
      1.025,
      0.955,
      0.8875,
      0.82,
      0.75,
      0.6825,
      0.615,
      0.5475,
      0.4775,
      0.41,
      0.3425,
      0.2725,
      0.205,
      0.1375,
      0.0675,
      0
    ],
    "SoftwareVersions": "syngo_MR_D13",
    "SpacingBetweenSlices": 3.3,
    "StationName": "FBMTMR1",
    "TaskName": "read",
    "TotalReadoutTime": 0.0409508,
    "TxRefAmp": 338.505,
    "dataset": "ds003126",
    "dcmmeta_affine": [
      [
        -2.999758005142212,
        0.010471130721271038,
        -0.04030995815992355,
        96.52511596679688
      ],
      [
        0.013439398258924484,
        2.9898831844329834,
        -0.2703811824321747,
        -112.20438385009766
      ],
      [
        -0.035663899034261703,
        0.24594540894031525,
        3.2886576652526855,
        -12.4464693069458
      ],
      [
        0.0,
        0.0,
        0.0,
        1.0
      ]
    ],
    "dcmmeta_reorient_transform": [
      [
        0.0,
        -1.0,
        0.0,
        63.0
      ],
      [
        1.0,
        0.0,
        0.0,
        0.0
      ],
      [
        0.0,
        0.0,
        1.0,
        0.0
      ],
      [
        0.0,
        0.0,
        0.0,
        1.0
      ]
    ],
    "dcmmeta_shape": [
      64,
      64,
      34,
      129
    ],
    "dcmmeta_slice_dim": 2,
    "dcmmeta_version": 0.6,
    "global": {
      "const": {
        "AcquisitionMatrix": [
          64,
          0,
          0,
          64
        ],
        "AngioFlag": "N",
        "BitsAllocated": 16,
        "BitsStored": 12,
        "BodyPartExamined": "HEAD",
        "Columns": 384,
        "EchoNumbers": 1,
        "EchoTime": 33.0,
        "EchoTrainLength": 64,
        "FlipAngle": 90.0,
        "HighBit": 11,
        "ImageOrientationPatient": [
          0.9999193005648,
          -0.0044797994471,
          -0.0118879668116,
          0.00349037698987,
          0.9966277143831,
          -0.0819818040298
        ],
        "ImagePositionPatient": [
          -578.82144275732,
          -552.38925497236,
          48.105581441848
        ],
        "ImageType": [
          "ORIGINAL",
          "PRIMARY",
          "M",
          "ND",
          "NORM",
          "MOSAIC"
        ],
        "ImagedNucleus": "1H",
        "ImagingFrequency": 123.219987,
        "InPlanePhaseEncodingDirection": "COL",
        "MRAcquisitionType": "2D",
        "MagneticFieldStrength": 3.0,
        "Manufacturer": "SIEMENS",
        "ManufacturerModelName": "Skyra",
        "Modality": "MR",
        "NumberOfAverages": 1.0,
        "NumberOfPhaseEncodingSteps": 64,
        "PercentPhaseFieldOfView": 100.0,
        "PercentSampling": 100.0,
        "PerformedProcedureStepStartTime": "102352.252000",
        "PhotometricInterpretation": "MONOCHROME2",
        "PixelBandwidth": 1700.0,
        "PixelRepresentation": 0,
        "PixelSpacing": [
          3.0,
          3.0
        ],
        "ProtocolName": "fMRI_3",
        "RepetitionTime": 2340.0,
        "Rows": 384,
        "SAR": 0.18857892514625,
        "SamplesPerPixel": 1,
        "ScanOptions": "FS",
        "ScanningSequence": "EP",
        "SequenceName": "*epfid2d1_64",
        "SequenceVariant": "SK",
        "SeriesDescription": "fMRI_3",
        "SeriesNumber": 8,
        "SeriesTime": "104023.065000",
        "SliceLocation": -4.3894381959893,
        "SliceThickness": 3.0,
        "SmallestImagePixelValue": 0,
        "SoftwareVersions": "syngo MR D13",
        "SpacingBetweenSlices": 3.2999999450805,
        "SpecificCharacterSet": "ISO_IR 100",
        "StudyID": "1",
        "StudyTime": "102352.197000",
        "TransmitCoilName": "Body",
        "VariableFlipAngleFlag": "N",
        "WindowCenterWidthExplanation": "Algo1",
        "dBdt": 0.0
      },
      "slices": {}
    },
    "modality": "bold",
    "run_id": 3,
    "session_id": "2",
    "subject_id": "047EPKL012071",
    "task_id": "read",
    "time": {
      "samples": {
        "AcquisitionNumber": [
          1,
          2,
          3,
          4,
          5,
          6,
          7,
          8,
          9,
          10,
          11,
          12,
          13,
          14,
          15,
          16,
          17,
          18,
          19,
          20,
          21,
          22,
          23,
          24,
          25,
          26,
          27,
          28,
          29,
          30,
          31,
          32,
          33,
          34,
          35,
          36,
          37,
          38,
          39,
          40,
          41,
          42,
          43,
          44,
          45,
          46,
          47,
          48,
          49,
          50,
          51,
          52,
          53,
          54,
          55,
          56,
          57,
          58,
          59,
          60,
          61,
          62,
          63,
          64,
          65,
          66,
          67,
          68,
          69,
          70,
          71,
          72,
          73,
          74,
          75,
          76,
          77,
          78,
          79,
          80,
          81,
          82,
          83,
          84,
          85,
          86,
          87,
          88,
          89,
          90,
          91,
          92,
          93,
          94,
          95,
          96,
          97,
          98,
          99,
          100,
          101,
          102,
          103,
          104,
          105,
          106,
          107,
          108,
          109,
          110,
          111,
          112,
          113,
          114,
          115,
          116,
          117,
          118,
          119,
          120,
          121,
          122,
          123,
          124,
          125,
          126,
          127,
          128,
          129
        ],
        "AcquisitionTime": [
          "104002.052500",
          "104004.392500",
          "104006.732500",
          "104009.072500",
          "104011.412500",
          "104013.752500",
          "104016.092500",
          "104018.432500",
          "104020.772500",
          "104023.112500",
          "104025.452500",
          "104027.792500",
          "104030.132500",
          "104032.472500",
          "104034.812500",
          "104037.152500",
          "104039.492500",
          "104041.832500",
          "104044.172500",
          "104046.512500",
          "104048.852500",
          "104051.192500",
          "104053.532500",
          "104055.872500",
          "104058.212500",
          "104100.552500",
          "104102.892500",
          "104105.232500",
          "104107.572500",
          "104109.912500",
          "104112.252500",
          "104114.592500",
          "104116.932500",
          "104119.272500",
          "104121.612500",
          "104123.952500",
          "104126.292500",
          "104128.632500",
          "104130.972500",
          "104133.312500",
          "104135.652500",
          "104137.992500",
          "104140.332500",
          "104142.672500",
          "104145.012500",
          "104147.352500",
          "104149.692500",
          "104152.032500",
          "104154.372500",
          "104156.712500",
          "104159.052500",
          "104201.392500",
          "104203.732500",
          "104206.072500",
          "104208.412500",
          "104210.752500",
          "104213.092500",
          "104215.432500",
          "104217.772500",
          "104220.112500",
          "104222.452500",
          "104224.792500",
          "104227.132500",
          "104229.472500",
          "104231.812500",
          "104234.152500",
          "104236.492500",
          "104238.832500",
          "104241.172500",
          "104243.512500",
          "104245.852500",
          "104248.192500",
          "104250.532500",
          "104252.872500",
          "104255.212500",
          "104257.552500",
          "104259.892500",
          "104302.232500",
          "104304.572500",
          "104306.912500",
          "104309.252500",
          "104311.592500",
          "104313.932500",
          "104316.272500",
          "104318.612500",
          "104320.952500",
          "104323.292500",
          "104325.632500",
          "104327.972500",
          "104330.312500",
          "104332.652500",
          "104334.992500",
          "104337.332500",
          "104339.672500",
          "104342.012500",
          "104344.352500",
          "104346.692500",
          "104349.032500",
          "104351.372500",
          "104353.712500",
          "104356.052500",
          "104358.392500",
          "104400.732500",
          "104403.072500",
          "104405.412500",
          "104407.752500",
          "104410.092500",
          "104412.432500",
          "104414.772500",
          "104417.112500",
          "104419.452500",
          "104421.792500",
          "104424.132500",
          "104426.472500",
          "104428.812500",
          "104431.152500",
          "104433.492500",
          "104435.832500",
          "104438.172500",
          "104440.512500",
          "104442.852500",
          "104445.192500",
          "104447.532500",
          "104449.872500",
          "104452.212500",
          "104454.552500",
          "104456.892500",
          "104459.232500",
          "104501.572500"
        ],
        "ContentTime": [
          "104023.069000",
          "104023.073000",
          "104023.081000",
          "104023.083000",
          "104023.086000",
          "104023.094000",
          "104023.097000",
          "104023.100000",
          "104023.102000",
          "104123.061000",
          "104123.065000",
          "104123.067000",
          "104123.070000",
          "104123.073000",
          "104123.075000",
          "104123.078000",
          "104123.081000",
          "104123.083000",
          "104123.086000",
          "104123.089000",
          "104123.092000",
          "104123.094000",
          "104123.097000",
          "104123.106000",
          "104123.108000",
          "104123.111000",
          "104123.114000",
          "104123.116000",
          "104123.119000",
          "104123.122000",
          "104123.124000",
          "104123.127000",
          "104123.130000",
          "104123.132000",
          "104123.135000",
          "104223.062000",
          "104223.065000",
          "104223.068000",
          "104223.070000",
          "104223.073000",
          "104223.076000",
          "104223.078000",
          "104223.081000",
          "104223.084000",
          "104223.087000",
          "104223.089000",
          "104223.092000",
          "104223.101000",
          "104223.104000",
          "104223.107000",
          "104223.109000",
          "104223.112000",
          "104223.115000",
          "104223.118000",
          "104223.121000",
          "104223.124000",
          "104223.126000",
          "104223.129000",
          "104223.132000",
          "104223.135000",
          "104223.138000",
          "104323.062000",
          "104323.065000",
          "104323.068000",
          "104323.071000",
          "104323.073000",
          "104323.076000",
          "104323.079000",
          "104323.081000",
          "104323.084000",
          "104323.087000",
          "104323.089000",
          "104323.092000",
          "104323.095000",
          "104323.097000",
          "104323.100000",
          "104323.103000",
          "104323.106000",
          "104323.108000",
          "104323.111000",
          "104323.114000",
          "104323.117000",
          "104323.120000",
          "104323.122000",
          "104323.125000",
          "104323.128000",
          "104423.062000",
          "104423.065000",
          "104423.068000",
          "104423.071000",
          "104423.074000",
          "104423.076000",
          "104423.079000",
          "104423.082000",
          "104423.085000",
          "104423.088000",
          "104423.090000",
          "104423.093000",
          "104423.096000",
          "104423.098000",
          "104423.101000",
          "104423.104000",
          "104423.106000",
          "104423.109000",
          "104423.112000",
          "104423.115000",
          "104423.117000",
          "104423.120000",
          "104423.122000",
          "104423.125000",
          "104423.128000",
          "104423.131000",
          "104503.789000",
          "104503.793000",
          "104503.796000",
          "104503.798000",
          "104503.803000",
          "104503.808000",
          "104503.813000",
          "104503.817000",
          "104503.820000",
          "104503.822000",
          "104503.825000",
          "104503.828000",
          "104503.831000",
          "104503.834000",
          "104503.837000",
          "104503.840000",
          "104503.843000"
        ],
        "InstanceCreationTime": [
          "104023.069000",
          "104023.073000",
          "104023.081000",
          "104023.083000",
          "104023.086000",
          "104023.094000",
          "104023.097000",
          "104023.100000",
          "104023.102000",
          "104123.061000",
          "104123.065000",
          "104123.067000",
          "104123.070000",
          "104123.073000",
          "104123.075000",
          "104123.078000",
          "104123.081000",
          "104123.083000",
          "104123.086000",
          "104123.089000",
          "104123.092000",
          "104123.094000",
          "104123.097000",
          "104123.106000",
          "104123.108000",
          "104123.111000",
          "104123.114000",
          "104123.116000",
          "104123.119000",
          "104123.122000",
          "104123.124000",
          "104123.127000",
          "104123.130000",
          "104123.132000",
          "104123.135000",
          "104223.062000",
          "104223.065000",
          "104223.068000",
          "104223.070000",
          "104223.073000",
          "104223.076000",
          "104223.078000",
          "104223.081000",
          "104223.084000",
          "104223.087000",
          "104223.089000",
          "104223.092000",
          "104223.101000",
          "104223.104000",
          "104223.107000",
          "104223.109000",
          "104223.112000",
          "104223.115000",
          "104223.118000",
          "104223.121000",
          "104223.124000",
          "104223.126000",
          "104223.129000",
          "104223.132000",
          "104223.135000",
          "104223.138000",
          "104323.062000",
          "104323.065000",
          "104323.068000",
          "104323.071000",
          "104323.073000",
          "104323.076000",
          "104323.079000",
          "104323.081000",
          "104323.084000",
          "104323.087000",
          "104323.089000",
          "104323.092000",
          "104323.095000",
          "104323.097000",
          "104323.100000",
          "104323.103000",
          "104323.106000",
          "104323.108000",
          "104323.111000",
          "104323.114000",
          "104323.117000",
          "104323.120000",
          "104323.122000",
          "104323.125000",
          "104323.128000",
          "104423.062000",
          "104423.065000",
          "104423.068000",
          "104423.071000",
          "104423.074000",
          "104423.076000",
          "104423.079000",
          "104423.082000",
          "104423.085000",
          "104423.088000",
          "104423.090000",
          "104423.093000",
          "104423.096000",
          "104423.098000",
          "104423.101000",
          "104423.104000",
          "104423.106000",
          "104423.109000",
          "104423.112000",
          "104423.115000",
          "104423.117000",
          "104423.120000",
          "104423.122000",
          "104423.125000",
          "104423.128000",
          "104423.131000",
          "104503.789000",
          "104503.793000",
          "104503.796000",
          "104503.798000",
          "104503.803000",
          "104503.808000",
          "104503.813000",
          "104503.817000",
          "104503.820000",
          "104503.822000",
          "104503.825000",
          "104503.828000",
          "104503.831000",
          "104503.834000",
          "104503.837000",
          "104503.840000",
          "104503.843000"
        ],
        "InstanceNumber": [
          1,
          2,
          3,
          4,
          5,
          6,
          7,
          8,
          9,
          10,
          11,
          12,
          13,
          14,
          15,
          16,
          17,
          18,
          19,
          20,
          21,
          22,
          23,
          24,
          25,
          26,
          27,
          28,
          29,
          30,
          31,
          32,
          33,
          34,
          35,
          36,
          37,
          38,
          39,
          40,
          41,
          42,
          43,
          44,
          45,
          46,
          47,
          48,
          49,
          50,
          51,
          52,
          53,
          54,
          55,
          56,
          57,
          58,
          59,
          60,
          61,
          62,
          63,
          64,
          65,
          66,
          67,
          68,
          69,
          70,
          71,
          72,
          73,
          74,
          75,
          76,
          77,
          78,
          79,
          80,
          81,
          82,
          83,
          84,
          85,
          86,
          87,
          88,
          89,
          90,
          91,
          92,
          93,
          94,
          95,
          96,
          97,
          98,
          99,
          100,
          101,
          102,
          103,
          104,
          105,
          106,
          107,
          108,
          109,
          110,
          111,
          112,
          113,
          114,
          115,
          116,
          117,
          118,
          119,
          120,
          121,
          122,
          123,
          124,
          125,
          126,
          127,
          128,
          129
        ],
        "LargestImagePixelValue": [
          2343,
          2799,
          3009,
          2365,
          2184,
          1965,
          1804,
          1936,
          2001,
          1895,
          2304,
          2235,
          2233,
          2113,
          2070,
          2445,
          2532,
          2395,
          1830,
          1752,
          2146,
          2140,
          1981,
          1766,
          1835,
          2810,
          2688,
          2154,
          2353,
          1660,
          1725,
          1951,
          2336,
          1716,
          2143,
          2036,
          2578,
          1857,
          2183,
          2203,
          2103,
          2212,
          1854,
          1730,
          1694,
          2131,
          2523,
          1693,
          2039,
          2328,
          2520,
          2668,
          2086,
          2081,
          2046,
          2345,
          1738,
          1880,
          1765,
          2260,
          2469,
          2126,
          2409,
          1803,
          1661,
          2312,
          2167,
          2408,
          2469,
          1720,
          1766,
          1702,
          2029,
          2518,
          1828,
          2166,
          1868,
          1782,
          2607,
          2929,
          1696,
          1833,
          1836,
          1861,
          2446,
          1956,
          2160,
          2204,
          2015,
          1771,
          1730,
          2467,
          2169,
          1845,
          2456,
          1830,
          2026,
          2470,
          2101,
          1981,
          2473,
          1799,
          1753,
          1917,
          1978,
          2511,
          1901,
          1773,
          1949,
          2697,
          2521,
          1713,
          1714,
          2811,
          1686,
          1745,
          1797,
          1849,
          2581,
          2564,
          2024,
          1970,
          2265,
          2522,
          1867,
          1864,
          1760,
          1774,
          2463
        ],
        "WindowCenter": [
          799.0,
          797.0,
          797.0,
          795.0,
          796.0,
          794.0,
          793.0,
          796.0,
          796.0,
          795.0,
          796.0,
          797.0,
          796.0,
          799.0,
          798.0,
          799.0,
          799.0,
          796.0,
          794.0,
          798.0,
          798.0,
          797.0,
          800.0,
          798.0,
          800.0,
          789.0,
          786.0,
          792.0,
          792.0,
          797.0,
          794.0,
          801.0,
          798.0,
          798.0,
          800.0,
          797.0,
          797.0,
          797.0,
          796.0,
          798.0,
          795.0,
          797.0,
          795.0,
          797.0,
          798.0,
          801.0,
          800.0,
          796.0,
          798.0,
          799.0,
          800.0,
          800.0,
          798.0,
          798.0,
          798.0,
          799.0,
          798.0,
          802.0,
          800.0,
          801.0,
          800.0,
          803.0,
          799.0,
          799.0,
          796.0,
          802.0,
          799.0,
          801.0,
          800.0,
          795.0,
          799.0,
          801.0,
          799.0,
          799.0,
          797.0,
          800.0,
          800.0,
          801.0,
          802.0,
          800.0,
          796.0,
          800.0,
          801.0,
          800.0,
          799.0,
          804.0,
          801.0,
          802.0,
          798.0,
          804.0,
          800.0,
          803.0,
          800.0,
          801.0,
          804.0,
          800.0,
          802.0,
          802.0,
          801.0,
          801.0,
          804.0,
          803.0,
          802.0,
          802.0,
          802.0,
          804.0,
          799.0,
          802.0,
          801.0,
          805.0,
          801.0,
          801.0,
          801.0,
          804.0,
          800.0,
          799.0,
          802.0,
          804.0,
          805.0,
          803.0,
          800.0,
          805.0,
          804.0,
          805.0,
          797.0,
          801.0,
          800.0,
          805.0,
          805.0
        ],
        "WindowWidth": [
          1683.0,
          1684.0,
          1681.0,
          1676.0,
          1679.0,
          1673.0,
          1671.0,
          1679.0,
          1679.0,
          1675.0,
          1678.0,
          1684.0,
          1681.0,
          1686.0,
          1685.0,
          1688.0,
          1688.0,
          1679.0,
          1675.0,
          1685.0,
          1683.0,
          1682.0,
          1683.0,
          1690.0,
          1691.0,
          1660.0,
          1656.0,
          1667.0,
          1668.0,
          1680.0,
          1676.0,
          1693.0,
          1686.0,
          1682.0,
          1690.0,
          1683.0,
          1685.0,
          1681.0,
          1678.0,
          1684.0,
          1679.0,
          1681.0,
          1678.0,
          1681.0,
          1685.0,
          1691.0,
          1693.0,
          1680.0,
          1686.0,
          1689.0,
          1690.0,
          1691.0,
          1685.0,
          1683.0,
          1684.0,
          1688.0,
          1685.0,
          1694.0,
          1690.0,
          1693.0,
          1691.0,
          1697.0,
          1688.0,
          1686.0,
          1679.0,
          1693.0,
          1687.0,
          1691.0,
          1689.0,
          1677.0,
          1687.0,
          1691.0,
          1689.0,
          1688.0,
          1681.0,
          1690.0,
          1692.0,
          1692.0,
          1694.0,
          1688.0,
          1679.0,
          1689.0,
          1691.0,
          1689.0,
          1687.0,
          1699.0,
          1696.0,
          1693.0,
          1682.0,
          1699.0,
          1689.0,
          1698.0,
          1690.0,
          1690.0,
          1699.0,
          1689.0,
          1695.0,
          1695.0,
          1694.0,
          1692.0,
          1699.0,
          1697.0,
          1695.0,
          1695.0,
          1695.0,
          1701.0,
          1688.0,
          1694.0,
          1693.0,
          1702.0,
          1694.0,
          1691.0,
          1693.0,
          1700.0,
          1689.0,
          1688.0,
          1696.0,
          1700.0,
          1703.0,
          1699.0,
          1689.0,
          1705.0,
          1700.0,
          1700.0,
          1681.0,
          1693.0,
          1690.0,
          1702.0,
          1702.0
        ]
      },
      "slices": {}
    }
  },
  "dummy_trs": 0,
  "dvars_nstd": 44.790992050937504,
  "dvars_std": 1.3503988696875,
  "dvars_vstd": 1.1212421547656253,
  "efc": 0.5811618429485537,
  "fber": 1517.322998046875,
  "fd_mean": 1.0886728480834598,
  "fd_num": 121,
  "fd_perc": 93.7984496124031,
  "fwhm_avg": 1.755825866418949,
  "fwhm_x": 1.63777,
  "fwhm_y": 2.003416666666667,
  "fwhm_z": 1.6262909325901802,
  "gcor": 0.0676362,
  "gsr_x": -0.013802380301058292,
  "gsr_y": 0.04524902626872063,
  "provenance": {
    "md5sum": "5af189b4d2e25564423958916c05ab7d",
    "settings": {
      "fd_thres": 0.2,
      "testing": false
    },
    "software": "mriqc",
    "version": "22.0.1",
    "webapi_port": null,
    "webapi_url": "https://mriqc.nimh.nih.gov/api/v1"
  },
  "size_t": 129,
  "size_x": 64,
  "size_y": 64,
  "size_z": 34,
  "snr": 7.721463985767684,
  "spacing_tr": 2.3399999141693115,
  "spacing_x": 3.0,
  "spacing_y": 3.0,
  "spacing_z": 3.299999952316284,
  "summary_bg_k": 43.19476400731562,
  "summary_bg_mad": 9.918493692185592,
  "summary_bg_mean": 39.422481536865234,
  "summary_bg_median": 22.961240768432617,
  "summary_bg_n": 71869.0,
  "summary_bg_p05": 12.868217468261719,
  "summary_bg_p95": 113.94108581542942,
  "summary_bg_stdv": 52.63701629638672,
  "summary_fg_k": 3.767761507723,
  "summary_fg_mad": 102.98918390618532,
  "summary_fg_mean": 924.5775756835938,
  "summary_fg_median": 924.8527221679688,
  "summary_fg_n": 34461.0,
  "summary_fg_p05": 741.8372192382812,
  "summary_fg_p95": 1104.1395263671875,
  "summary_fg_stdv": 119.7751235961914,
  "tsnr": 39.77023126819404
}