{
  "aor": 0.0026905691056910565,
  "aqi": 0.01047383130081301,
  "bids_meta": {
    "AcquisitionMatrixPE": 64,
    "AcquisitionNumber": 1,
    "AcquisitionTime": "09:32:37.880000",
    "BandwidthPerPixelPhaseEncode": 24.038,
    "BaseResolution": 64,
    "BodyPartExamined": "HEAD",
    "ConsistencyInfo": "N4_VD13A_LATEST_20120616",
    "ConversionSoftware": "dcm2niix",
    "ConversionSoftwareVersion": "v1.0.20181125  GCC6.3.0",
    "DerivedVendorReportedEchoSpacing": 0.000650012,
    "DeviceSerialNumber": "45250",
    "DwellTime": 4.6e-06,
    "EchoTime": 0.033,
    "EchoTrainLength": 64,
    "EffectiveEchoSpacing": 0.000650012,
    "FlipAngle": 90,
    "ImageOrientationPatientDICOM": [
      0.999919,
      0.00125033,
      -0.0126424,
      -0.00349042,
      0.983886,
      -0.17876
    ],
    "ImageType": [
      "ORIGINAL",
      "PRIMARY",
      "M",
      "ND",
      "NORM",
      "MOSAIC"
    ],
    "ImagingFrequency": 123.22,
    "InPlanePhaseEncodingDirectionDICOM": "COL",
    "InstitutionAddress": "Kopernikusstr._26_Graz_Graz_AT_8010",
    "InstitutionName": "KFU",
    "InstitutionalDepartmentName": "Department",
    "MRAcquisitionType": "2D",
    "MagneticFieldStrength": 3,
    "Manufacturer": "Siemens",
    "ManufacturersModelName": "Skyra",
    "Modality": "MR",
    "PartialFourier": 1,
    "PatientPosition": "HFS",
    "PercentPhaseFOV": 100,
    "PhaseEncodingDirection": "j-",
    "PhaseEncodingSteps": 64,
    "PhaseResolution": 1,
    "PixelBandwidth": 1700,
    "ProcedureStepDescription": "KFU_Entw-Psy",
    "ProtocolName": "fMRI_2",
    "PulseSequenceDetails": "%SiemensSeq%_ep2d_pace",
    "ReceiveCoilActiveElements": "HE1-4",
    "ReceiveCoilName": "HeadNeck_20",
    "ReconMatrixPE": 64,
    "RepetitionTime": 2.34,
    "SAR": 0.165592,
    "ScanOptions": "FS",
    "ScanningSequence": "EP",
    "SequenceName": "_epfid2d1_64",
    "SequenceVariant": "SK",
    "SeriesDescription": "fMRI_2",
    "SeriesNumber": 5,
    "ShimSetting": [
      -1613,
      -3679,
      -4189,
      592,
      405,
      32,
      21,
      -195
    ],
    "SliceThickness": 3,
    "SliceTiming": [
      2.2525,
      2.185,
      2.115,
      2.0475,
      1.98,
      1.91,
      1.8425,
      1.775,
      1.7075,
      1.6375,
      1.57,
      1.5025,
      1.4325,
      1.365,
      1.2975,
      1.23,
      1.16,
      1.0925,
      1.025,
      0.955,
      0.8875,
      0.82,
      0.75,
      0.6825,
      0.615,
      0.5475,
      0.4775,
      0.41,
      0.3425,
      0.2725,
      0.205,
      0.1375,
      0.07,
      0
    ],
    "SoftwareVersions": "syngo_MR_D13",
    "SpacingBetweenSlices": 3.3,
    "StationName": "FBMTMR1",
    "TaskName": "read",
    "TotalReadoutTime": 0.0409508,
    "TxRefAmp": 329.605,
    "dataset": "ds003126",
    "dcmmeta_affine": [
      [
        -2.999758005142212,
        -0.010471269488334656,
        -0.04030995070934296,
        96.41464233398438
      ],
      [
        -0.0037510041147470474,
        2.9516592025756836,
        -0.590007483959198,
        -108.10391998291016
      ],
      [
        -0.03792707994580269,
        0.5362813472747803,
        3.246577501296997,
        -12.323657989501953
      ],
      [
        0.0,
        0.0,
        0.0,
        1.0
      ]
    ],
    "dcmmeta_reorient_transform": [
      [
        0.0,
        -1.0,
        0.0,
        63.0
      ],
      [
        1.0,
        0.0,
        0.0,
        0.0
      ],
      [
        0.0,
        0.0,
        1.0,
        0.0
      ],
      [
        0.0,
        0.0,
        0.0,
        1.0
      ]
    ],
    "dcmmeta_shape": [
      64,
      64,
      34,
      126
    ],
    "dcmmeta_slice_dim": 2,
    "dcmmeta_version": 0.6,
    "global": {
      "const": {
        "AcquisitionMatrix": [
          64,
          0,
          0,
          64
        ],
        "AngioFlag": "N",
        "BitsAllocated": 16,
        "BitsStored": 12,
        "BodyPartExamined": "HEAD",
        "Columns": 384,
        "EchoNumbers": 1,
        "EchoTime": 33.0,
        "EchoTrainLength": 64,
        "FlipAngle": 90.0,
        "HighBit": 11,
        "ImageOrientationPatient": [
          0.99991930043478,
          0.00125033472485,
          -0.0126423605826,
          -0.0034904232131,
          0.98388643436825,
          -0.1787604576295
        ],
        "ImagePositionPatient": [
          -574.04081276229,
          -550.71626579877,
          113.3354213424
        ],
        "ImageType": [
          "ORIGINAL",
          "PRIMARY",
          "M",
          "ND",
          "NORM",
          "MOSAIC"
        ],
        "ImagedNucleus": "1H",
        "ImagingFrequency": 123.219954,
        "InPlanePhaseEncodingDirection": "COL",
        "MRAcquisitionType": "2D",
        "MagneticFieldStrength": 3.0,
        "Manufacturer": "SIEMENS",
        "ManufacturerModelName": "Skyra",
        "Modality": "MR",
        "NumberOfAverages": 1.0,
        "NumberOfPhaseEncodingSteps": 64,
        "PercentPhaseFieldOfView": 100.0,
        "PercentSampling": 100.0,
        "PerformedProcedureStepStartTime": "091817.562000",
        "PhotometricInterpretation": "MONOCHROME2",
        "PixelBandwidth": 1700.0,
        "PixelRepresentation": 0,
        "PixelSpacing": [
          3.0,
          3.0
        ],
        "ProtocolName": "fMRI_2",
        "RepetitionTime": 2340.0,
        "Rows": 384,
        "SAR": 0.1655917420263,
        "SamplesPerPixel": 1,
        "ScanOptions": "FS",
        "ScanningSequence": "EP",
        "SequenceName": "*epfid2d1_64",
        "SequenceVariant": "SK",
        "SeriesDescription": "fMRI_2",
        "SeriesNumber": 5,
        "SeriesTime": "093323.518000",
        "SliceLocation": 6.0260438008669,
        "SliceThickness": 3.0,
        "SmallestImagePixelValue": 0,
        "SoftwareVersions": "syngo MR D13",
        "SpacingBetweenSlices": 3.2999999153607,
        "SpecificCharacterSet": "ISO_IR 100",
        "StudyID": "1",
        "StudyTime": "091817.511000",
        "TransmitCoilName": "Body",
        "VariableFlipAngleFlag": "N",
        "WindowCenterWidthExplanation": "Algo1",
        "dBdt": 0.0
      },
      "slices": {}
    },
    "modality": "bold",
    "run_id": 2,
    "session_id": "2",
    "subject_id": "047EPKL011056",
    "task_id": "read",
    "time": {
      "samples": {
        "AcquisitionNumber": [
          1,
          2,
          3,
          4,
          5,
          6,
          7,
          8,
          9,
          10,
          11,
          12,
          13,
          14,
          15,
          16,
          17,
          18,
          19,
          20,
          21,
          22,
          23,
          24,
          25,
          26,
          27,
          28,
          29,
          30,
          31,
          32,
          33,
          34,
          35,
          36,
          37,
          38,
          39,
          40,
          41,
          42,
          43,
          44,
          45,
          46,
          47,
          48,
          49,
          50,
          51,
          52,
          53,
          54,
          55,
          56,
          57,
          58,
          59,
          60,
          61,
          62,
          63,
          64,
          65,
          66,
          67,
          68,
          69,
          70,
          71,
          72,
          73,
          74,
          75,
          76,
          77,
          78,
          79,
          80,
          81,
          82,
          83,
          84,
          85,
          86,
          87,
          88,
          89,
          90,
          91,
          92,
          93,
          94,
          95,
          96,
          97,
          98,
          99,
          100,
          101,
          102,
          103,
          104,
          105,
          106,
          107,
          108,
          109,
          110,
          111,
          112,
          113,
          114,
          115,
          116,
          117,
          118,
          119,
          120,
          121,
          122,
          123,
          124,
          125,
          126
        ],
        "AcquisitionTime": [
          "093237.880000",
          "093240.220000",
          "093242.560000",
          "093244.900000",
          "093247.240000",
          "093249.580000",
          "093251.920000",
          "093254.260000",
          "093256.600000",
          "093258.940000",
          "093301.280000",
          "093303.620000",
          "093305.960000",
          "093308.300000",
          "093310.640000",
          "093312.980000",
          "093315.320000",
          "093317.660000",
          "093320.000000",
          "093322.340000",
          "093324.680000",
          "093327.020000",
          "093329.360000",
          "093331.700000",
          "093334.040000",
          "093336.380000",
          "093338.720000",
          "093341.060000",
          "093343.400000",
          "093345.740000",
          "093348.080000",
          "093350.420000",
          "093352.760000",
          "093355.100000",
          "093357.440000",
          "093359.780000",
          "093402.120000",
          "093404.460000",
          "093406.800000",
          "093409.140000",
          "093411.480000",
          "093413.820000",
          "093416.160000",
          "093418.500000",
          "093420.840000",
          "093423.180000",
          "093425.520000",
          "093427.860000",
          "093430.200000",
          "093432.540000",
          "093434.880000",
          "093437.220000",
          "093439.560000",
          "093441.900000",
          "093444.240000",
          "093446.580000",
          "093448.920000",
          "093451.260000",
          "093453.600000",
          "093455.940000",
          "093458.280000",
          "093500.620000",
          "093502.960000",
          "093505.300000",
          "093507.640000",
          "093509.980000",
          "093512.320000",
          "093514.660000",
          "093517.000000",
          "093519.340000",
          "093521.680000",
          "093524.020000",
          "093526.360000",
          "093528.700000",
          "093531.040000",
          "093533.380000",
          "093535.720000",
          "093538.060000",
          "093540.400000",
          "093542.740000",
          "093545.080000",
          "093547.420000",
          "093549.760000",
          "093552.100000",
          "093554.440000",
          "093556.780000",
          "093559.120000",
          "093601.460000",
          "093603.800000",
          "093606.140000",
          "093608.480000",
          "093610.820000",
          "093613.160000",
          "093615.500000",
          "093617.840000",
          "093620.180000",
          "093622.520000",
          "093624.860000",
          "093627.200000",
          "093629.540000",
          "093631.880000",
          "093634.220000",
          "093636.560000",
          "093638.900000",
          "093641.240000",
          "093643.580000",
          "093645.920000",
          "093648.260000",
          "093650.600000",
          "093652.940000",
          "093655.280000",
          "093657.620000",
          "093659.960000",
          "093702.300000",
          "093704.640000",
          "093706.980000",
          "093709.320000",
          "093711.660000",
          "093714.000000",
          "093716.340000",
          "093718.680000",
          "093721.020000",
          "093723.360000",
          "093725.700000",
          "093728.040000",
          "093730.380000"
        ],
        "ContentTime": [
          "093323.522000",
          "093323.526000",
          "093323.529000",
          "093323.531000",
          "093323.546000",
          "093323.549000",
          "093323.551000",
          "093323.554000",
          "093323.557000",
          "093323.560000",
          "093323.562000",
          "093323.565000",
          "093323.567000",
          "093323.570000",
          "093323.573000",
          "093323.575000",
          "093323.578000",
          "093323.581000",
          "093323.583000",
          "093323.586000",
          "093423.515000",
          "093423.518000",
          "093423.521000",
          "093423.524000",
          "093423.527000",
          "093423.530000",
          "093423.533000",
          "093423.536000",
          "093423.539000",
          "093423.541000",
          "093423.544000",
          "093423.547000",
          "093423.550000",
          "093423.553000",
          "093423.555000",
          "093423.558000",
          "093423.561000",
          "093423.574000",
          "093423.577000",
          "093423.579000",
          "093423.582000",
          "093423.585000",
          "093423.588000",
          "093423.591000",
          "093423.594000",
          "093523.516000",
          "093523.532000",
          "093523.535000",
          "093523.538000",
          "093523.541000",
          "093523.544000",
          "093523.547000",
          "093523.550000",
          "093523.553000",
          "093523.556000",
          "093523.558000",
          "093523.561000",
          "093523.564000",
          "093523.567000",
          "093523.570000",
          "093523.573000",
          "093523.576000",
          "093523.578000",
          "093523.581000",
          "093523.584000",
          "093523.587000",
          "093523.590000",
          "093523.592000",
          "093523.595000",
          "093523.598000",
          "093523.601000",
          "093623.516000",
          "093623.519000",
          "093623.522000",
          "093623.525000",
          "093623.528000",
          "093623.531000",
          "093623.534000",
          "093623.537000",
          "093623.540000",
          "093623.542000",
          "093623.545000",
          "093623.548000",
          "093623.551000",
          "093623.554000",
          "093623.557000",
          "093623.560000",
          "093623.563000",
          "093623.565000",
          "093623.568000",
          "093623.571000",
          "093623.574000",
          "093623.577000",
          "093623.580000",
          "093623.583000",
          "093623.585000",
          "093623.588000",
          "093723.516000",
          "093723.519000",
          "093723.532000",
          "093723.535000",
          "093723.538000",
          "093723.541000",
          "093723.544000",
          "093723.547000",
          "093723.550000",
          "093723.552000",
          "093723.555000",
          "093723.558000",
          "093723.561000",
          "093723.564000",
          "093723.567000",
          "093723.570000",
          "093723.573000",
          "093723.575000",
          "093723.578000",
          "093723.581000",
          "093723.584000",
          "093723.587000",
          "093723.590000",
          "093723.593000",
          "093723.596000",
          "093732.608000",
          "093732.611000",
          "093732.614000",
          "093732.617000"
        ],
        "InstanceCreationTime": [
          "093323.522000",
          "093323.526000",
          "093323.529000",
          "093323.531000",
          "093323.546000",
          "093323.549000",
          "093323.551000",
          "093323.554000",
          "093323.557000",
          "093323.560000",
          "093323.562000",
          "093323.565000",
          "093323.567000",
          "093323.570000",
          "093323.573000",
          "093323.575000",
          "093323.578000",
          "093323.581000",
          "093323.583000",
          "093323.586000",
          "093423.515000",
          "093423.518000",
          "093423.521000",
          "093423.524000",
          "093423.527000",
          "093423.530000",
          "093423.533000",
          "093423.536000",
          "093423.539000",
          "093423.541000",
          "093423.544000",
          "093423.547000",
          "093423.550000",
          "093423.553000",
          "093423.555000",
          "093423.558000",
          "093423.561000",
          "093423.574000",
          "093423.577000",
          "093423.579000",
          "093423.582000",
          "093423.585000",
          "093423.588000",
          "093423.591000",
          "093423.594000",
          "093523.516000",
          "093523.532000",
          "093523.535000",
          "093523.538000",
          "093523.541000",
          "093523.544000",
          "093523.547000",
          "093523.550000",
          "093523.553000",
          "093523.556000",
          "093523.558000",
          "093523.561000",
          "093523.564000",
          "093523.567000",
          "093523.570000",
          "093523.573000",
          "093523.576000",
          "093523.578000",
          "093523.581000",
          "093523.584000",
          "093523.587000",
          "093523.590000",
          "093523.592000",
          "093523.595000",
          "093523.598000",
          "093523.601000",
          "093623.516000",
          "093623.519000",
          "093623.522000",
          "093623.525000",
          "093623.528000",
          "093623.531000",
          "093623.534000",
          "093623.537000",
          "093623.540000",
          "093623.542000",
          "093623.545000",
          "093623.548000",
          "093623.551000",
          "093623.554000",
          "093623.557000",
          "093623.560000",
          "093623.563000",
          "093623.565000",
          "093623.568000",
          "093623.571000",
          "093623.574000",
          "093623.577000",
          "093623.580000",
          "093623.583000",
          "093623.585000",
          "093623.588000",
          "093723.516000",
          "093723.519000",
          "093723.532000",
          "093723.535000",
          "093723.538000",
          "093723.541000",
          "093723.544000",
          "093723.547000",
          "093723.550000",
          "093723.552000",
          "093723.555000",
          "093723.558000",
          "093723.561000",
          "093723.564000",
          "093723.567000",
          "093723.570000",
          "093723.573000",
          "093723.575000",
          "093723.578000",
          "093723.581000",
          "093723.584000",
          "093723.587000",
          "093723.590000",
          "093723.593000",
          "093723.596000",
          "093732.608000",
          "093732.611000",
          "093732.614000",
          "093732.617000"
        ],
        "InstanceNumber": [
          1,
          2,
          3,
          4,
          5,
          6,
          7,
          8,
          9,
          10,
          11,
          12,
          13,
          14,
          15,
          16,
          17,
          18,
          19,
          20,
          21,
          22,
          23,
          24,
          25,
          26,
          27,
          28,
          29,
          30,
          31,
          32,
          33,
          34,
          35,
          36,
          37,
          38,
          39,
          40,
          41,
          42,
          43,
          44,
          45,
          46,
          47,
          48,
          49,
          50,
          51,
          52,
          53,
          54,
          55,
          56,
          57,
          58,
          59,
          60,
          61,
          62,
          63,
          64,
          65,
          66,
          67,
          68,
          69,
          70,
          71,
          72,
          73,
          74,
          75,
          76,
          77,
          78,
          79,
          80,
          81,
          82,
          83,
          84,
          85,
          86,
          87,
          88,
          89,
          90,
          91,
          92,
          93,
          94,
          95,
          96,
          97,
          98,
          99,
          100,
          101,
          102,
          103,
          104,
          105,
          106,
          107,
          108,
          109,
          110,
          111,
          112,
          113,
          114,
          115,
          116,
          117,
          118,
          119,
          120,
          121,
          122,
          123,
          124,
          125,
          126
        ],
        "LargestImagePixelValue": [
          2746,
          1781,
          1824,
          1802,
          1946,
          2103,
          2477,
          2188,
          2468,
          1785,
          2531,
          2057,
          2199,
          1955,
          2110,
          1808,
          1780,
          2276,
          2274,
          1803,
          1871,
          2143,
          2085,
          1874,
          2059,
          2487,
          1910,
          2096,
          2290,
          2279,
          2702,
          1795,
          1895,
          1922,
          2097,
          2420,
          2259,
          2425,
          1886,
          1995,
          2639,
          1810,
          1820,
          1825,
          1797,
          2089,
          2344,
          1904,
          2079,
          2114,
          1785,
          1831,
          2347,
          2085,
          1780,
          2657,
          3126,
          1839,
          1928,
          1954,
          2063,
          2151,
          2237,
          2229,
          1761,
          2009,
          2132,
          2171,
          2014,
          2049,
          2198,
          1718,
          2138,
          1936,
          1761,
          1841,
          1854,
          2109,
          2274,
          2365,
          2260,
          2020,
          2079,
          2028,
          2257,
          2283,
          1728,
          1791,
          2155,
          2185,
          2066,
          2161,
          1915,
          2108,
          2077,
          2052,
          2260,
          2646,
          1904,
          1785,
          2397,
          2228,
          2248,
          2706,
          2539,
          1850,
          2225,
          2099,
          1815,
          2471,
          2135,
          2896,
          1822,
          1824,
          2079,
          2044,
          1934,
          2118,
          1985,
          2167,
          2652,
          2427,
          1917,
          2163,
          1977,
          2060
        ],
        "WindowCenter": [
          806.0,
          802.0,
          805.0,
          808.0,
          811.0,
          811.0,
          812.0,
          811.0,
          811.0,
          810.0,
          811.0,
          809.0,
          809.0,
          810.0,
          811.0,
          813.0,
          812.0,
          811.0,
          810.0,
          809.0,
          810.0,
          811.0,
          809.0,
          811.0,
          811.0,
          813.0,
          813.0,
          812.0,
          811.0,
          810.0,
          810.0,
          811.0,
          813.0,
          812.0,
          812.0,
          812.0,
          812.0,
          812.0,
          809.0,
          810.0,
          811.0,
          810.0,
          809.0,
          811.0,
          812.0,
          812.0,
          813.0,
          809.0,
          810.0,
          812.0,
          810.0,
          812.0,
          813.0,
          813.0,
          812.0,
          815.0,
          814.0,
          812.0,
          814.0,
          815.0,
          814.0,
          814.0,
          813.0,
          811.0,
          813.0,
          813.0,
          813.0,
          812.0,
          811.0,
          813.0,
          814.0,
          812.0,
          813.0,
          812.0,
          809.0,
          812.0,
          812.0,
          814.0,
          813.0,
          813.0,
          813.0,
          814.0,
          814.0,
          813.0,
          813.0,
          812.0,
          812.0,
          813.0,
          814.0,
          814.0,
          815.0,
          813.0,
          812.0,
          815.0,
          817.0,
          814.0,
          814.0,
          814.0,
          812.0,
          814.0,
          817.0,
          817.0,
          816.0,
          816.0,
          815.0,
          814.0,
          815.0,
          815.0,
          815.0,
          818.0,
          814.0,
          813.0,
          810.0,
          815.0,
          816.0,
          815.0,
          815.0,
          817.0,
          815.0,
          815.0,
          815.0,
          814.0,
          814.0,
          814.0,
          814.0,
          815.0
        ],
        "WindowWidth": [
          1706.0,
          1696.0,
          1704.0,
          1712.0,
          1719.0,
          1720.0,
          1723.0,
          1719.0,
          1721.0,
          1717.0,
          1721.0,
          1714.0,
          1715.0,
          1715.0,
          1718.0,
          1724.0,
          1721.0,
          1719.0,
          1717.0,
          1715.0,
          1717.0,
          1720.0,
          1715.0,
          1719.0,
          1720.0,
          1724.0,
          1724.0,
          1720.0,
          1719.0,
          1718.0,
          1718.0,
          1720.0,
          1725.0,
          1722.0,
          1722.0,
          1724.0,
          1722.0,
          1722.0,
          1713.0,
          1717.0,
          1721.0,
          1716.0,
          1715.0,
          1718.0,
          1721.0,
          1722.0,
          1725.0,
          1713.0,
          1715.0,
          1722.0,
          1715.0,
          1722.0,
          1725.0,
          1726.0,
          1721.0,
          1730.0,
          1728.0,
          1721.0,
          1727.0,
          1730.0,
          1725.0,
          1727.0,
          1724.0,
          1720.0,
          1724.0,
          1724.0,
          1724.0,
          1722.0,
          1719.0,
          1725.0,
          1729.0,
          1722.0,
          1723.0,
          1722.0,
          1714.0,
          1723.0,
          1723.0,
          1728.0,
          1726.0,
          1727.0,
          1724.0,
          1727.0,
          1725.0,
          1725.0,
          1725.0,
          1722.0,
          1722.0,
          1725.0,
          1728.0,
          1728.0,
          1729.0,
          1726.0,
          1722.0,
          1728.0,
          1733.0,
          1726.0,
          1727.0,
          1727.0,
          1722.0,
          1726.0,
          1735.0,
          1733.0,
          1731.0,
          1732.0,
          1732.0,
          1727.0,
          1730.0,
          1728.0,
          1729.0,
          1738.0,
          1727.0,
          1726.0,
          1716.0,
          1728.0,
          1730.0,
          1729.0,
          1729.0,
          1734.0,
          1729.0,
          1730.0,
          1731.0,
          1727.0,
          1727.0,
          1728.0,
          1726.0,
          1730.0
        ]
      },
      "slices": {}
    }
  },
  "dummy_trs": 3,
  "dvars_nstd": 31.204979099344264,
  "dvars_std": 1.3048910165573773,
  "dvars_vstd": 1.0287324894262295,
  "efc": 0.5783301444631506,
  "fber": 1631.544189453125,
  "fd_mean": 0.39201462814416826,
  "fd_num": 99,
  "fd_perc": 80.48780487804878,
  "fwhm_avg": 1.6329112195702933,
  "fwhm_x": 1.53623,
  "fwhm_y": 1.81594,
  "fwhm_z": 1.5465636587108793,
  "gcor": 0.0518308,
  "gsr_x": 0.004476923029869795,
  "gsr_y": 0.04298010841012001,
  "provenance": {
    "md5sum": "ed60bb63ef805f0f9fc30d21bf3426be",
    "settings": {
      "fd_thres": 0.2,
      "testing": false
    },
    "software": "mriqc",
    "version": "22.0.1",
    "webapi_port": null,
    "webapi_url": "https://mriqc.nimh.nih.gov/api/v1"
  },
  "size_t": 123,
  "size_x": 64,
  "size_y": 64,
  "size_z": 34,
  "snr": 7.257190745674772,
  "spacing_tr": 2.3399999141693115,
  "spacing_x": 3.0,
  "spacing_y": 3.0,
  "spacing_z": 3.299999952316284,
  "summary_bg_k": 34.9207343609354,
  "summary_bg_mad": 11.25813449414809,
  "summary_bg_mean": 41.224056243896484,
  "summary_bg_median": 22.650405883789062,
  "summary_bg_n": 72156.0,
  "summary_bg_p05": 11.837397575378418,
  "summary_bg_p95": 123.91056823730469,
  "summary_bg_stdv": 63.0296516418457,
  "summary_fg_k": 2.229477636543959,
  "summary_fg_mad": 126.19597166532502,
  "summary_fg_mean": 944.0576171875,
  "summary_fg_median": 942.0284423828125,
  "summary_fg_n": 34602.0,
  "summary_fg_p05": 750.8105621337891,
  "summary_fg_p95": 1147.2474853515623,
  "summary_fg_stdv": 129.80433654785156,
  "tsnr": 64.4709246987477
}